,BVP,time
0,26.01,2021-12-17 16:32:12.890625
1,25.35,2021-12-17 16:32:12.906250
2,31.61,2021-12-17 16:32:12.921875
3,43.66,2021-12-17 16:32:12.937500
4,62.35,2021-12-17 16:32:12.953125
5,85.94,2021-12-17 16:32:12.968750
6,113.48,2021-12-17 16:32:12.984375
7,144.11,2021-12-17 16:32:13.000000
8,175.02,2021-12-17 16:32:13.015625
9,199.95,2021-12-17 16:32:13.031250
10,211.07,2021-12-17 16:32:13.046875
11,202.55,2021-12-17 16:32:13.062500
12,173.68,2021-12-17 16:32:13.078125
13,129.51,2021-12-17 16:32:13.093750
14,77.03,2021-12-17 16:32:13.109375
15,24.36,2021-12-17 16:32:13.125000
16,-22.38,2021-12-17 16:32:13.140625
17,-60.91,2021-12-17 16:32:13.156250
18,-93.42,2021-12-17 16:32:13.171875
19,-123.52,2021-12-17 16:32:13.187500
20,-153.17,2021-12-17 16:32:13.203125
21,-181.27,2021-12-17 16:32:13.218750
22,-204.41,2021-12-17 16:32:13.234375
23,-220.55,2021-12-17 16:32:13.250000
24,-228.42,2021-12-17 16:32:13.265625
25,-227.61,2021-12-17 16:32:13.281250
26,-218.39,2021-12-17 16:32:13.296875
27,-202.72,2021-12-17 16:32:13.312500
28,-183.5,2021-12-17 16:32:13.328125
29,-163.94,2021-12-17 16:32:13.343750
30,-147.5,2021-12-17 16:32:13.359375
31,-137.07,2021-12-17 16:32:13.375000
32,-135.98,2021-12-17 16:32:13.390625
33,-144.77,2021-12-17 16:32:13.406250
34,-160.0,2021-12-17 16:32:13.421875
35,-169.79,2021-12-17 16:32:13.437500
36,-164.67,2021-12-17 16:32:13.453125
37,-143.51,2021-12-17 16:32:13.468750
38,-115.0,2021-12-17 16:32:13.484375
39,-94.77,2021-12-17 16:32:13.500000
40,-86.61,2021-12-17 16:32:13.515625
41,-89.36,2021-12-17 16:32:13.531250
42,-99.38,2021-12-17 16:32:13.546875
43,-111.8,2021-12-17 16:32:13.562500
44,-122.88,2021-12-17 16:32:13.578125
45,-131.46,2021-12-17 16:32:13.593750
46,-137.99,2021-12-17 16:32:13.609375
47,-142.99,2021-12-17 16:32:13.625000
48,-145.77,2021-12-17 16:32:13.640625
49,-144.22,2021-12-17 16:32:13.656250
50,-137.59,2021-12-17 16:32:13.671875
51,-126.11,2021-12-17 16:32:13.687500
52,-110.81,2021-12-17 16:32:13.703125
53,-93.29,2021-12-17 16:32:13.718750
54,-76.15,2021-12-17 16:32:13.734375
55,-61.41,2021-12-17 16:32:13.750000
56,-49.5,2021-12-17 16:32:13.765625
57,-38.76,2021-12-17 16:32:13.781250
58,-25.82,2021-12-17 16:32:13.796875
59,-8.11,2021-12-17 16:32:13.812500
60,16.17,2021-12-17 16:32:13.828125
61,47.89,2021-12-17 16:32:13.843750
62,86.82,2021-12-17 16:32:13.859375
63,131.56,2021-12-17 16:32:13.875000
64,180.67,2021-12-17 16:32:13.890625
65,233.37,2021-12-17 16:32:13.906250
66,289.67,2021-12-17 16:32:13.921875
67,349.4,2021-12-17 16:32:13.937500
68,410.05,2021-12-17 16:32:13.953125
69,467.09,2021-12-17 16:32:13.968750
70,514.9,2021-12-17 16:32:13.984375
71,548.76,2021-12-17 16:32:14.000000
72,566.31,2021-12-17 16:32:14.015625
73,568.68,2021-12-17 16:32:14.031250
74,559.9,2021-12-17 16:32:14.046875
75,545.01,2021-12-17 16:32:14.062500
76,527.5,2021-12-17 16:32:14.078125
77,507.36,2021-12-17 16:32:14.093750
78,482.1,2021-12-17 16:32:14.109375
79,448.72,2021-12-17 16:32:14.125000
80,406.02,2021-12-17 16:32:14.140625
81,355.55,2021-12-17 16:32:14.156250
82,300.84,2021-12-17 16:32:14.171875
83,245.6,2021-12-17 16:32:14.187500
84,191.88,2021-12-17 16:32:14.203125
85,140.07,2021-12-17 16:32:14.218750
86,89.69,2021-12-17 16:32:14.234375
87,41.82,2021-12-17 16:32:14.250000
88,-0.29,2021-12-17 16:32:14.265625
89,-32.26,2021-12-17 16:32:14.281250
90,-51.22,2021-12-17 16:32:14.296875
91,-57.82,2021-12-17 16:32:14.312500
92,-56.43,2021-12-17 16:32:14.328125
93,-53.45,2021-12-17 16:32:14.343750
94,-54.35,2021-12-17 16:32:14.359375
95,-62.27,2021-12-17 16:32:14.375000
96,-77.09,2021-12-17 16:32:14.390625
97,-97.21,2021-12-17 16:32:14.406250
98,-121.33,2021-12-17 16:32:14.421875
99,-149.3,2021-12-17 16:32:14.437500
100,-181.43,2021-12-17 16:32:14.453125
101,-217.13,2021-12-17 16:32:14.468750
102,-253.91,2021-12-17 16:32:14.484375
103,-287.56,2021-12-17 16:32:14.500000
104,-313.86,2021-12-17 16:32:14.515625
105,-328.94,2021-12-17 16:32:14.531250
106,-330.87,2021-12-17 16:32:14.546875
107,-320.2,2021-12-17 16:32:14.562500
108,-299.94,2021-12-17 16:32:14.578125
109,-275.09,2021-12-17 16:32:14.593750
110,-251.0,2021-12-17 16:32:14.609375
111,-231.48,2021-12-17 16:32:14.625000
112,-214.01,2021-12-17 16:32:14.640625
113,-195.54,2021-12-17 16:32:14.656250
114,-172.7,2021-12-17 16:32:14.671875
115,-145.08,2021-12-17 16:32:14.687500
116,-117.08,2021-12-17 16:32:14.703125
117,-96.08,2021-12-17 16:32:14.718750
118,-88.73,2021-12-17 16:32:14.734375
119,-97.16,2021-12-17 16:32:14.750000
120,-117.7,2021-12-17 16:32:14.765625
121,-142.77,2021-12-17 16:32:14.781250
122,-165.75,2021-12-17 16:32:14.796875
123,-182.05,2021-12-17 16:32:14.812500
124,-190.23,2021-12-17 16:32:14.828125
125,-191.46,2021-12-17 16:32:14.843750
126,-187.61,2021-12-17 16:32:14.859375
127,-180.12,2021-12-17 16:32:14.875000
128,-169.33,2021-12-17 16:32:14.890625
129,-155.13,2021-12-17 16:32:14.906250
130,-136.05,2021-12-17 16:32:14.921875
131,-112.61,2021-12-17 16:32:14.937500
132,-85.02,2021-12-17 16:32:14.953125
133,-52.92,2021-12-17 16:32:14.968750
134,-15.26,2021-12-17 16:32:14.984375
135,28.69,2021-12-17 16:32:15.000000
136,77.65,2021-12-17 16:32:15.015625
137,127.62,2021-12-17 16:32:15.031250
138,172.2,2021-12-17 16:32:15.046875
139,204.86,2021-12-17 16:32:15.062500
140,220.87,2021-12-17 16:32:15.078125
141,220.15,2021-12-17 16:32:15.093750
142,206.84,2021-12-17 16:32:15.109375
143,187.36,2021-12-17 16:32:15.125000
144,167.57,2021-12-17 16:32:15.140625
145,150.41,2021-12-17 16:32:15.156250
146,135.5,2021-12-17 16:32:15.171875
147,120.1,2021-12-17 16:32:15.187500
148,101.21,2021-12-17 16:32:15.203125
149,76.76,2021-12-17 16:32:15.218750
150,47.16,2021-12-17 16:32:15.234375
151,15.15,2021-12-17 16:32:15.250000
152,-14.61,2021-12-17 16:32:15.265625
153,-36.13,2021-12-17 16:32:15.281250
154,-43.37,2021-12-17 16:32:15.296875
155,-31.93,2021-12-17 16:32:15.312500
156,-1.51,2021-12-17 16:32:15.328125
157,42.73,2021-12-17 16:32:15.343750
158,90.16,2021-12-17 16:32:15.359375
159,127.6,2021-12-17 16:32:15.375000
160,143.87,2021-12-17 16:32:15.390625
161,134.49,2021-12-17 16:32:15.406250
162,104.35,2021-12-17 16:32:15.421875
163,66.49,2021-12-17 16:32:15.437500
164,37.38,2021-12-17 16:32:15.453125
165,30.24,2021-12-17 16:32:15.468750
166,49.81,2021-12-17 16:32:15.484375
167,90.92,2021-12-17 16:32:15.500000
168,141.64,2021-12-17 16:32:15.515625
169,188.57,2021-12-17 16:32:15.531250
170,221.84,2021-12-17 16:32:15.546875
171,237.95,2021-12-17 16:32:15.562500
172,238.69,2021-12-17 16:32:15.578125
173,228.23,2021-12-17 16:32:15.593750
174,209.9,2021-12-17 16:32:15.609375
175,184.6,2021-12-17 16:32:15.625000
176,151.28,2021-12-17 16:32:15.640625
177,108.78,2021-12-17 16:32:15.656250
178,57.28,2021-12-17 16:32:15.671875
179,-1.46,2021-12-17 16:32:15.687500
180,-64.11,2021-12-17 16:32:15.703125
181,-126.52,2021-12-17 16:32:15.718750
182,-183.96,2021-12-17 16:32:15.734375
183,-231.26,2021-12-17 16:32:15.750000
184,-263.27,2021-12-17 16:32:15.765625
185,-275.93,2021-12-17 16:32:15.781250
186,-267.89,2021-12-17 16:32:15.796875
187,-241.42,2021-12-17 16:32:15.812500
188,-202.13,2021-12-17 16:32:15.828125
189,-157.07,2021-12-17 16:32:15.843750
190,-112.47,2021-12-17 16:32:15.859375
191,-72.05,2021-12-17 16:32:15.875000
192,-36.67,2021-12-17 16:32:15.890625
193,-5.41,2021-12-17 16:32:15.906250
194,22.74,2021-12-17 16:32:15.921875
195,47.44,2021-12-17 16:32:15.937500
196,66.91,2021-12-17 16:32:15.953125
197,79.06,2021-12-17 16:32:15.968750
198,82.88,2021-12-17 16:32:15.984375
199,78.84,2021-12-17 16:32:16.000000
200,68.18,2021-12-17 16:32:16.015625
201,52.37,2021-12-17 16:32:16.031250
202,32.58,2021-12-17 16:32:16.046875
203,10.14,2021-12-17 16:32:16.062500
204,-12.72,2021-12-17 16:32:16.078125
205,-31.93,2021-12-17 16:32:16.093750
206,-41.65,2021-12-17 16:32:16.109375
207,-35.53,2021-12-17 16:32:16.125000
208,-9.25,2021-12-17 16:32:16.140625
209,36.4,2021-12-17 16:32:16.156250
210,96.47,2021-12-17 16:32:16.171875
211,163.38,2021-12-17 16:32:16.187500
212,229.34,2021-12-17 16:32:16.203125
213,287.9,2021-12-17 16:32:16.218750
214,334.73,2021-12-17 16:32:16.234375
215,367.65,2021-12-17 16:32:16.250000
216,386.55,2021-12-17 16:32:16.265625
217,392.93,2021-12-17 16:32:16.281250
218,386.89,2021-12-17 16:32:16.296875
219,369.63,2021-12-17 16:32:16.312500
220,343.64,2021-12-17 16:32:16.328125
221,312.41,2021-12-17 16:32:16.343750
222,278.54,2021-12-17 16:32:16.359375
223,242.34,2021-12-17 16:32:16.375000
224,202.06,2021-12-17 16:32:16.390625
225,155.66,2021-12-17 16:32:16.406250
226,102.7,2021-12-17 16:32:16.421875
227,41.48,2021-12-17 16:32:16.437500
228,-26.47,2021-12-17 16:32:16.453125
229,-96.59,2021-12-17 16:32:16.468750
230,-162.5,2021-12-17 16:32:16.484375
231,-219.41,2021-12-17 16:32:16.500000
232,-266.53,2021-12-17 16:32:16.515625
233,-306.46,2021-12-17 16:32:16.531250
234,-342.57,2021-12-17 16:32:16.546875
235,-376.71,2021-12-17 16:32:16.562500
236,-413.77,2021-12-17 16:32:16.578125
237,-456.59,2021-12-17 16:32:16.593750
238,-505.76,2021-12-17 16:32:16.609375
239,-559.1,2021-12-17 16:32:16.625000
240,-613.07,2021-12-17 16:32:16.640625
241,-664.64,2021-12-17 16:32:16.656250
242,-711.24,2021-12-17 16:32:16.671875
243,-750.5,2021-12-17 16:32:16.687500
244,-749.27,2021-12-17 16:32:16.703125
245,-686.67,2021-12-17 16:32:16.718750
246,-563.92,2021-12-17 16:32:16.734375
247,-407.1,2021-12-17 16:32:16.750000
248,-249.05,2021-12-17 16:32:16.765625
249,-111.0,2021-12-17 16:32:16.781250
250,0.68,2021-12-17 16:32:16.796875
251,88.76,2021-12-17 16:32:16.812500
252,158.76,2021-12-17 16:32:16.828125
253,215.45,2021-12-17 16:32:16.843750
254,255.66,2021-12-17 16:32:16.859375
255,279.21,2021-12-17 16:32:16.875000
256,286.57,2021-12-17 16:32:16.890625
257,280.26,2021-12-17 16:32:16.906250
258,264.0,2021-12-17 16:32:16.921875
259,240.42,2021-12-17 16:32:16.937500
260,211.16,2021-12-17 16:32:16.953125
261,177.25,2021-12-17 16:32:16.968750
262,139.22,2021-12-17 16:32:16.984375
263,93.13,2021-12-17 16:32:17.000000
264,38.51,2021-12-17 16:32:17.015625
265,-17.24,2021-12-17 16:32:17.031250
266,-62.57,2021-12-17 16:32:17.046875
267,-86.73,2021-12-17 16:32:17.062500
268,-85.32,2021-12-17 16:32:17.078125
269,-60.25,2021-12-17 16:32:17.093750
270,-17.11,2021-12-17 16:32:17.109375
271,37.59,2021-12-17 16:32:17.125000
272,95.41,2021-12-17 16:32:17.140625
273,149.69,2021-12-17 16:32:17.156250
274,195.91,2021-12-17 16:32:17.171875
275,231.82,2021-12-17 16:32:17.187500
276,257.89,2021-12-17 16:32:17.203125
277,275.16,2021-12-17 16:32:17.218750
278,284.01,2021-12-17 16:32:17.234375
279,284.18,2021-12-17 16:32:17.250000
280,274.58,2021-12-17 16:32:17.265625
281,252.59,2021-12-17 16:32:17.281250
282,216.62,2021-12-17 16:32:17.296875
283,167.01,2021-12-17 16:32:17.312500
284,105.86,2021-12-17 16:32:17.328125
285,36.11,2021-12-17 16:32:17.343750
286,-40.24,2021-12-17 16:32:17.359375
287,-117.95,2021-12-17 16:32:17.375000
288,-191.23,2021-12-17 16:32:17.390625
289,-255.85,2021-12-17 16:32:17.406250
290,-309.78,2021-12-17 16:32:17.421875
291,-351.32,2021-12-17 16:32:17.437500
292,-378.01,2021-12-17 16:32:17.453125
293,-386.81,2021-12-17 16:32:17.468750
294,-374.82,2021-12-17 16:32:17.484375
295,-340.72,2021-12-17 16:32:17.500000
296,-284.14,2021-12-17 16:32:17.515625
297,-207.64,2021-12-17 16:32:17.531250
298,-117.8,2021-12-17 16:32:17.546875
299,-24.1,2021-12-17 16:32:17.562500
300,63.71,2021-12-17 16:32:17.578125
301,137.47,2021-12-17 16:32:17.593750
302,190.73,2021-12-17 16:32:17.609375
303,219.18,2021-12-17 16:32:17.625000
304,215.22,2021-12-17 16:32:17.640625
305,177.91,2021-12-17 16:32:17.656250
306,119.98,2021-12-17 16:32:17.671875
307,62.76,2021-12-17 16:32:17.687500
308,23.55,2021-12-17 16:32:17.703125
309,8.21,2021-12-17 16:32:17.718750
310,12.09,2021-12-17 16:32:17.734375
311,24.24,2021-12-17 16:32:17.750000
312,33.44,2021-12-17 16:32:17.765625
313,32.54,2021-12-17 16:32:17.781250
314,21.29,2021-12-17 16:32:17.796875
315,3.97,2021-12-17 16:32:17.812500
316,-14.91,2021-12-17 16:32:17.828125
317,-33.17,2021-12-17 16:32:17.843750
318,-50.83,2021-12-17 16:32:17.859375
319,-67.88,2021-12-17 16:32:17.875000
320,-85.25,2021-12-17 16:32:17.890625
321,-100.84,2021-12-17 16:32:17.906250
322,-111.69,2021-12-17 16:32:17.921875
323,-114.49,2021-12-17 16:32:17.937500
324,-107.4,2021-12-17 16:32:17.953125
325,-91.24,2021-12-17 16:32:17.968750
326,-68.98,2021-12-17 16:32:17.984375
327,-44.33,2021-12-17 16:32:18.000000
328,-19.3,2021-12-17 16:32:18.015625
329,5.13,2021-12-17 16:32:18.031250
330,29.14,2021-12-17 16:32:18.046875
331,53.03,2021-12-17 16:32:18.062500
332,77.57,2021-12-17 16:32:18.078125
333,103.34,2021-12-17 16:32:18.093750
334,130.14,2021-12-17 16:32:18.109375
335,157.84,2021-12-17 16:32:18.125000
336,182.59,2021-12-17 16:32:18.140625
337,204.07,2021-12-17 16:32:18.156250
338,223.98,2021-12-17 16:32:18.171875
339,244.66,2021-12-17 16:32:18.187500
340,266.5,2021-12-17 16:32:18.203125
341,286.61,2021-12-17 16:32:18.218750
342,298.67,2021-12-17 16:32:18.234375
343,294.86,2021-12-17 16:32:18.250000
344,269.21,2021-12-17 16:32:18.265625
345,220.92,2021-12-17 16:32:18.281250
346,156.09,2021-12-17 16:32:18.296875
347,84.87,2021-12-17 16:32:18.312500
348,17.66,2021-12-17 16:32:18.328125
349,-38.77,2021-12-17 16:32:18.343750
350,-82.76,2021-12-17 16:32:18.359375
351,-117.02,2021-12-17 16:32:18.375000
352,-146.24,2021-12-17 16:32:18.390625
353,-174.75,2021-12-17 16:32:18.406250
354,-205.46,2021-12-17 16:32:18.421875
355,-239.64,2021-12-17 16:32:18.437500
356,-278.82,2021-12-17 16:32:18.453125
357,-325.01,2021-12-17 16:32:18.468750
358,-379.47,2021-12-17 16:32:18.484375
359,-440.6,2021-12-17 16:32:18.500000
360,-502.39,2021-12-17 16:32:18.515625
361,-555.24,2021-12-17 16:32:18.531250
362,-588.54,2021-12-17 16:32:18.546875
363,-594.93,2021-12-17 16:32:18.562500
364,-572.82,2021-12-17 16:32:18.578125
365,-527.25,2021-12-17 16:32:18.593750
366,-467.15,2021-12-17 16:32:18.609375
367,-401.53,2021-12-17 16:32:18.625000
368,-336.56,2021-12-17 16:32:18.640625
369,-275.26,2021-12-17 16:32:18.656250
370,-219.35,2021-12-17 16:32:18.671875
371,-171.18,2021-12-17 16:32:18.687500
372,-134.11,2021-12-17 16:32:18.703125
373,-110.48,2021-12-17 16:32:18.718750
374,-99.35,2021-12-17 16:32:18.734375
375,-95.33,2021-12-17 16:32:18.750000
376,-90.18,2021-12-17 16:32:18.765625
377,-76.37,2021-12-17 16:32:18.781250
378,-50.57,2021-12-17 16:32:18.796875
379,-14.9,2021-12-17 16:32:18.812500
380,24.73,2021-12-17 16:32:18.828125
381,61.8,2021-12-17 16:32:18.843750
382,92.33,2021-12-17 16:32:18.859375
383,116.14,2021-12-17 16:32:18.875000
384,135.87,2021-12-17 16:32:18.890625
385,155.2,2021-12-17 16:32:18.906250
386,177.07,2021-12-17 16:32:18.921875
387,203.11,2021-12-17 16:32:18.937500
388,233.91,2021-12-17 16:32:18.953125
389,269.44,2021-12-17 16:32:18.968750
390,309.11,2021-12-17 16:32:18.984375
391,351.49,2021-12-17 16:32:19.000000
392,394.43,2021-12-17 16:32:19.015625
393,435.19,2021-12-17 16:32:19.031250
394,471.25,2021-12-17 16:32:19.046875
395,500.75,2021-12-17 16:32:19.062500
396,522.78,2021-12-17 16:32:19.078125
397,537.38,2021-12-17 16:32:19.093750
398,545.23,2021-12-17 16:32:19.109375
399,547.56,2021-12-17 16:32:19.125000
400,545.74,2021-12-17 16:32:19.140625
401,540.84,2021-12-17 16:32:19.156250
402,532.7,2021-12-17 16:32:19.171875
403,519.54,2021-12-17 16:32:19.187500
404,497.82,2021-12-17 16:32:19.203125
405,463.23,2021-12-17 16:32:19.218750
406,412.56,2021-12-17 16:32:19.234375
407,345.71,2021-12-17 16:32:19.250000
408,266.82,2021-12-17 16:32:19.265625
409,183.6,2021-12-17 16:32:19.281250
410,105.32,2021-12-17 16:32:19.296875
411,39.66,2021-12-17 16:32:19.312500
412,-9.69,2021-12-17 16:32:19.328125
413,-43.87,2021-12-17 16:32:19.343750
414,-67.72,2021-12-17 16:32:19.359375
415,-86.87,2021-12-17 16:32:19.375000
416,-105.27,2021-12-17 16:32:19.390625
417,-123.7,2021-12-17 16:32:19.406250
418,-140.42,2021-12-17 16:32:19.421875
419,-152.94,2021-12-17 16:32:19.437500
420,-159.31,2021-12-17 16:32:19.453125
421,-158.27,2021-12-17 16:32:19.468750
422,-148.32,2021-12-17 16:32:19.484375
423,-127.21,2021-12-17 16:32:19.500000
424,-93.14,2021-12-17 16:32:19.515625
425,-47.45,2021-12-17 16:32:19.531250
426,3.31,2021-12-17 16:32:19.546875
427,48.02,2021-12-17 16:32:19.562500
428,75.07,2021-12-17 16:32:19.578125
429,77.82,2021-12-17 16:32:19.593750
430,58.11,2021-12-17 16:32:19.609375
431,25.17,2021-12-17 16:32:19.625000
432,-9.46,2021-12-17 16:32:19.640625
433,-38.17,2021-12-17 16:32:19.656250
434,-60.91,2021-12-17 16:32:19.671875
435,-83.9,2021-12-17 16:32:19.687500
436,-114.96,2021-12-17 16:32:19.703125
437,-158.55,2021-12-17 16:32:19.718750
438,-213.44,2021-12-17 16:32:19.734375
439,-273.32,2021-12-17 16:32:19.750000
440,-329.38,2021-12-17 16:32:19.765625
441,-373.2,2021-12-17 16:32:19.781250
442,-398.23,2021-12-17 16:32:19.796875
443,-400.55,2021-12-17 16:32:19.812500
444,-379.17,2021-12-17 16:32:19.828125
445,-336.14,2021-12-17 16:32:19.843750
446,-276.21,2021-12-17 16:32:19.859375
447,-205.36,2021-12-17 16:32:19.875000
448,-129.3,2021-12-17 16:32:19.890625
449,-52.51,2021-12-17 16:32:19.906250
450,21.46,2021-12-17 16:32:19.921875
451,88.74,2021-12-17 16:32:19.937500
452,144.56,2021-12-17 16:32:19.953125
453,184.25,2021-12-17 16:32:19.968750
454,205.29,2021-12-17 16:32:19.984375
455,209.01,2021-12-17 16:32:20.000000
456,200.67,2021-12-17 16:32:20.015625
457,187.49,2021-12-17 16:32:20.031250
458,175.74,2021-12-17 16:32:20.046875
459,168.78,2021-12-17 16:32:20.062500
460,166.91,2021-12-17 16:32:20.078125
461,168.39,2021-12-17 16:32:20.093750
462,171.18,2021-12-17 16:32:20.109375
463,173.68,2021-12-17 16:32:20.125000
464,174.11,2021-12-17 16:32:20.140625
465,169.93,2021-12-17 16:32:20.156250
466,157.89,2021-12-17 16:32:20.171875
467,135.11,2021-12-17 16:32:20.187500
468,101.01,2021-12-17 16:32:20.203125
469,58.46,2021-12-17 16:32:20.218750
470,13.32,2021-12-17 16:32:20.234375
471,-27.47,2021-12-17 16:32:20.250000
472,-58.77,2021-12-17 16:32:20.265625
473,-79.75,2021-12-17 16:32:20.281250
474,-94.51,2021-12-17 16:32:20.296875
475,-110.26,2021-12-17 16:32:20.312500
476,-133.78,2021-12-17 16:32:20.328125
477,-167.49,2021-12-17 16:32:20.343750
478,-207.28,2021-12-17 16:32:20.359375
479,-243.48,2021-12-17 16:32:20.375000
480,-264.42,2021-12-17 16:32:20.390625
481,-261.41,2021-12-17 16:32:20.406250
482,-232.27,2021-12-17 16:32:20.421875
483,-181.97,2021-12-17 16:32:20.437500
484,-119.93,2021-12-17 16:32:20.453125
485,-55.96,2021-12-17 16:32:20.468750
486,3.27,2021-12-17 16:32:20.484375
487,55.63,2021-12-17 16:32:20.500000
488,102.58,2021-12-17 16:32:20.515625
489,147.26,2021-12-17 16:32:20.531250
490,192.14,2021-12-17 16:32:20.546875
491,237.57,2021-12-17 16:32:20.562500
492,281.3,2021-12-17 16:32:20.578125
493,318.74,2021-12-17 16:32:20.593750
494,343.94,2021-12-17 16:32:20.609375
495,351.49,2021-12-17 16:32:20.625000
496,338.37,2021-12-17 16:32:20.640625
497,305.41,2021-12-17 16:32:20.656250
498,257.39,2021-12-17 16:32:20.671875
499,201.67,2021-12-17 16:32:20.687500
500,145.79,2021-12-17 16:32:20.703125
501,95.57,2021-12-17 16:32:20.718750
502,54.18,2021-12-17 16:32:20.734375
503,22.35,2021-12-17 16:32:20.750000
504,-0.76,2021-12-17 16:32:20.765625
505,-17.26,2021-12-17 16:32:20.781250
506,-30.42,2021-12-17 16:32:20.796875
507,-44.07,2021-12-17 16:32:20.812500
508,-61.03,2021-12-17 16:32:20.828125
509,-81.34,2021-12-17 16:32:20.843750
510,-100.76,2021-12-17 16:32:20.859375
511,-111.55,2021-12-17 16:32:20.875000
512,-105.08,2021-12-17 16:32:20.890625
513,-75.47,2021-12-17 16:32:20.906250
514,-22.49,2021-12-17 16:32:20.921875
515,47.12,2021-12-17 16:32:20.937500
516,120.97,2021-12-17 16:32:20.953125
517,184.49,2021-12-17 16:32:20.968750
518,224.77,2021-12-17 16:32:20.984375
519,234.3,2021-12-17 16:32:21.000000
520,212.7,2021-12-17 16:32:21.015625
521,166.33,2021-12-17 16:32:21.031250
522,106.05,2021-12-17 16:32:21.046875
523,43.83,2021-12-17 16:32:21.062500
524,-10.98,2021-12-17 16:32:21.078125
525,-53.78,2021-12-17 16:32:21.093750
526,-85.03,2021-12-17 16:32:21.109375
527,-108.9,2021-12-17 16:32:21.125000
528,-131.18,2021-12-17 16:32:21.140625
529,-157.31,2021-12-17 16:32:21.156250
530,-191.01,2021-12-17 16:32:21.171875
531,-233.02,2021-12-17 16:32:21.187500
532,-280.32,2021-12-17 16:32:21.203125
533,-326.17,2021-12-17 16:32:21.218750
534,-361.06,2021-12-17 16:32:21.234375
535,-375.54,2021-12-17 16:32:21.250000
536,-364.0,2021-12-17 16:32:21.265625
537,-327.85,2021-12-17 16:32:21.281250
538,-276.34,2021-12-17 16:32:21.296875
539,-224.24,2021-12-17 16:32:21.312500
540,-186.62,2021-12-17 16:32:21.328125
541,-173.78,2021-12-17 16:32:21.343750
542,-188.24,2021-12-17 16:32:21.359375
543,-225.41,2021-12-17 16:32:21.375000
544,-277.2,2021-12-17 16:32:21.390625
545,-336.01,2021-12-17 16:32:21.406250
546,-396.65,2021-12-17 16:32:21.421875
547,-455.59,2021-12-17 16:32:21.437500
548,-508.76,2021-12-17 16:32:21.453125
549,-549.83,2021-12-17 16:32:21.468750
550,-571.36,2021-12-17 16:32:21.484375
551,-567.65,2021-12-17 16:32:21.500000
552,-538.11,2021-12-17 16:32:21.515625
553,-488.47,2021-12-17 16:32:21.531250
554,-429.16,2021-12-17 16:32:21.546875
555,-370.96,2021-12-17 16:32:21.562500
556,-321.09,2021-12-17 16:32:21.578125
557,-281.47,2021-12-17 16:32:21.593750
558,-249.6,2021-12-17 16:32:21.609375
559,-221.23,2021-12-17 16:32:21.625000
560,-192.97,2021-12-17 16:32:21.640625
561,-163.66,2021-12-17 16:32:21.656250
562,-133.99,2021-12-17 16:32:21.671875
563,-105.5,2021-12-17 16:32:21.687500
564,-79.27,2021-12-17 16:32:21.703125
565,-55.64,2021-12-17 16:32:21.718750
566,-34.21,2021-12-17 16:32:21.734375
567,-14.23,2021-12-17 16:32:21.750000
568,5.17,2021-12-17 16:32:21.765625
569,24.76,2021-12-17 16:32:21.781250
570,45.24,2021-12-17 16:32:21.796875
571,67.0,2021-12-17 16:32:21.812500
572,89.74,2021-12-17 16:32:21.828125
573,112.47,2021-12-17 16:32:21.843750
574,133.56,2021-12-17 16:32:21.859375
575,151.52,2021-12-17 16:32:21.875000
576,165.38,2021-12-17 16:32:21.890625
577,175.32,2021-12-17 16:32:21.906250
578,182.53,2021-12-17 16:32:21.921875
579,188.82,2021-12-17 16:32:21.937500
580,196.22,2021-12-17 16:32:21.953125
581,206.79,2021-12-17 16:32:21.968750
582,222.66,2021-12-17 16:32:21.984375
583,245.67,2021-12-17 16:32:22.000000
584,276.25,2021-12-17 16:32:22.015625
585,311.82,2021-12-17 16:32:22.031250
586,346.33,2021-12-17 16:32:22.046875
587,371.81,2021-12-17 16:32:22.062500
588,382.19,2021-12-17 16:32:22.078125
589,377.4,2021-12-17 16:32:22.093750
590,364.81,2021-12-17 16:32:22.109375
591,356.89,2021-12-17 16:32:22.125000
592,365.73,2021-12-17 16:32:22.140625
593,397.36,2021-12-17 16:32:22.156250
594,448.95,2021-12-17 16:32:22.171875
595,511.17,2021-12-17 16:32:22.187500
596,573.53,2021-12-17 16:32:22.203125
597,629.36,2021-12-17 16:32:22.218750
598,677.22,2021-12-17 16:32:22.234375
599,718.58,2021-12-17 16:32:22.250000
600,754.09,2021-12-17 16:32:22.265625
601,781.33,2021-12-17 16:32:22.281250
602,795.3,2021-12-17 16:32:22.296875
603,791.01,2021-12-17 16:32:22.312500
604,766.53,2021-12-17 16:32:22.328125
605,723.6,2021-12-17 16:32:22.343750
606,666.33,2021-12-17 16:32:22.359375
607,599.43,2021-12-17 16:32:22.375000
608,526.78,2021-12-17 16:32:22.390625
609,451.59,2021-12-17 16:32:22.406250
610,377.01,2021-12-17 16:32:22.421875
611,306.17,2021-12-17 16:32:22.437500
612,240.95,2021-12-17 16:32:22.453125
613,181.97,2021-12-17 16:32:22.468750
614,128.67,2021-12-17 16:32:22.484375
615,80.05,2021-12-17 16:32:22.500000
616,35.85,2021-12-17 16:32:22.515625
617,-3.16,2021-12-17 16:32:22.531250
618,-35.32,2021-12-17 16:32:22.546875
619,-58.92,2021-12-17 16:32:22.562500
620,-73.68,2021-12-17 16:32:22.578125
621,-82.59,2021-12-17 16:32:22.593750
622,-89.37,2021-12-17 16:32:22.609375
623,-96.68,2021-12-17 16:32:22.625000
624,-104.88,2021-12-17 16:32:22.640625
625,-112.54,2021-12-17 16:32:22.656250
626,-117.82,2021-12-17 16:32:22.671875
627,-119.56,2021-12-17 16:32:22.687500
628,-117.28,2021-12-17 16:32:22.703125
629,-112.1,2021-12-17 16:32:22.718750
630,-109.46,2021-12-17 16:32:22.734375
631,-114.59,2021-12-17 16:32:22.750000
632,-130.14,2021-12-17 16:32:22.765625
633,-154.87,2021-12-17 16:32:22.781250
634,-184.88,2021-12-17 16:32:22.796875
635,-215.79,2021-12-17 16:32:22.812500
636,-243.79,2021-12-17 16:32:22.828125
637,-265.69,2021-12-17 16:32:22.843750
638,-280.74,2021-12-17 16:32:22.859375
639,-295.06,2021-12-17 16:32:22.875000
640,-314.85,2021-12-17 16:32:22.890625
641,-343.07,2021-12-17 16:32:22.906250
642,-377.82,2021-12-17 16:32:22.921875
643,-414.99,2021-12-17 16:32:22.937500
644,-451.91,2021-12-17 16:32:22.953125
645,-488.36,2021-12-17 16:32:22.968750
646,-524.05,2021-12-17 16:32:22.984375
647,-559.01,2021-12-17 16:32:23.000000
648,-597.31,2021-12-17 16:32:23.015625
649,-639.74,2021-12-17 16:32:23.031250
650,-683.3,2021-12-17 16:32:23.046875
651,-723.68,2021-12-17 16:32:23.062500
652,-760.49,2021-12-17 16:32:23.078125
653,-799.5,2021-12-17 16:32:23.093750
654,-848.83,2021-12-17 16:32:23.109375
655,-910.95,2021-12-17 16:32:23.125000
656,-934.58,2021-12-17 16:32:23.140625
657,-875.87,2021-12-17 16:32:23.156250
658,-721.92,2021-12-17 16:32:23.171875
659,-502.88,2021-12-17 16:32:23.187500
660,-267.99,2021-12-17 16:32:23.203125
661,-56.15,2021-12-17 16:32:23.218750
662,113.19,2021-12-17 16:32:23.234375
663,229.68,2021-12-17 16:32:23.250000
664,309.57,2021-12-17 16:32:23.265625
665,364.2,2021-12-17 16:32:23.281250
666,392.57,2021-12-17 16:32:23.296875
667,391.57,2021-12-17 16:32:23.312500
668,363.08,2021-12-17 16:32:23.328125
669,316.26,2021-12-17 16:32:23.343750
670,263.42,2021-12-17 16:32:23.359375
671,217.25,2021-12-17 16:32:23.375000
672,184.9,2021-12-17 16:32:23.390625
673,166.84,2021-12-17 16:32:23.406250
674,154.66,2021-12-17 16:32:23.421875
675,135.53,2021-12-17 16:32:23.437500
676,101.97,2021-12-17 16:32:23.453125
677,59.06,2021-12-17 16:32:23.468750
678,21.44,2021-12-17 16:32:23.484375
679,2.99,2021-12-17 16:32:23.500000
680,9.21,2021-12-17 16:32:23.515625
681,36.39,2021-12-17 16:32:23.531250
682,77.02,2021-12-17 16:32:23.546875
683,121.77,2021-12-17 16:32:23.562500
684,161.07,2021-12-17 16:32:23.578125
685,188.37,2021-12-17 16:32:23.593750
686,202.37,2021-12-17 16:32:23.609375
687,202.09,2021-12-17 16:32:23.625000
688,187.1,2021-12-17 16:32:23.640625
689,158.96,2021-12-17 16:32:23.656250
690,121.7,2021-12-17 16:32:23.671875
691,81.69,2021-12-17 16:32:23.687500
692,44.05,2021-12-17 16:32:23.703125
693,11.12,2021-12-17 16:32:23.718750
694,-16.77,2021-12-17 16:32:23.734375
695,-39.69,2021-12-17 16:32:23.750000
696,-58.71,2021-12-17 16:32:23.765625
697,-72.06,2021-12-17 16:32:23.781250
698,-77.28,2021-12-17 16:32:23.796875
699,-72.09,2021-12-17 16:32:23.812500
700,-54.84,2021-12-17 16:32:23.828125
701,-25.42,2021-12-17 16:32:23.843750
702,15.15,2021-12-17 16:32:23.859375
703,65.99,2021-12-17 16:32:23.875000
704,127.48,2021-12-17 16:32:23.890625
705,198.36,2021-12-17 16:32:23.906250
706,265.46,2021-12-17 16:32:23.921875
707,309.42,2021-12-17 16:32:23.937500
708,316.03,2021-12-17 16:32:23.953125
709,285.95,2021-12-17 16:32:23.968750
710,231.88,2021-12-17 16:32:23.984375
711,168.31,2021-12-17 16:32:24.000000
712,105.39,2021-12-17 16:32:24.015625
713,48.96,2021-12-17 16:32:24.031250
714,-0.3,2021-12-17 16:32:24.046875
715,-44.27,2021-12-17 16:32:24.062500
716,-84.06,2021-12-17 16:32:24.078125
717,-119.38,2021-12-17 16:32:24.093750
718,-149.12,2021-12-17 16:32:24.109375
719,-171.95,2021-12-17 16:32:24.125000
720,-189.7,2021-12-17 16:32:24.140625
721,-208.23,2021-12-17 16:32:24.156250
722,-228.91,2021-12-17 16:32:24.171875
723,-250.71,2021-12-17 16:32:24.187500
724,-270.09,2021-12-17 16:32:24.203125
725,-281.23,2021-12-17 16:32:24.218750
726,-278.69,2021-12-17 16:32:24.234375
727,-258.52,2021-12-17 16:32:24.250000
728,-217.19,2021-12-17 16:32:24.265625
729,-152.49,2021-12-17 16:32:24.281250
730,-74.77,2021-12-17 16:32:24.296875
731,2.62,2021-12-17 16:32:24.312500
732,65.78,2021-12-17 16:32:24.328125
733,104.32,2021-12-17 16:32:24.343750
734,119.55,2021-12-17 16:32:24.359375
735,116.81,2021-12-17 16:32:24.375000
736,106.39,2021-12-17 16:32:24.390625
737,103.63,2021-12-17 16:32:24.406250
738,118.29,2021-12-17 16:32:24.421875
739,150.99,2021-12-17 16:32:24.437500
740,196.07,2021-12-17 16:32:24.453125
741,244.14,2021-12-17 16:32:24.468750
742,287.27,2021-12-17 16:32:24.484375
743,322.55,2021-12-17 16:32:24.500000
744,352.22,2021-12-17 16:32:24.515625
745,357.5,2021-12-17 16:32:24.531250
746,337.22,2021-12-17 16:32:24.546875
747,297.15,2021-12-17 16:32:24.562500
748,244.76,2021-12-17 16:32:24.578125
749,187.04,2021-12-17 16:32:24.593750
750,128.98,2021-12-17 16:32:24.609375
751,74.7,2021-12-17 16:32:24.625000
752,26.98,2021-12-17 16:32:24.640625
753,-13.65,2021-12-17 16:32:24.656250
754,-48.9,2021-12-17 16:32:24.671875
755,-78.7,2021-12-17 16:32:24.687500
756,-105.54,2021-12-17 16:32:24.703125
757,-132.08,2021-12-17 16:32:24.718750
758,-158.01,2021-12-17 16:32:24.734375
759,-181.66,2021-12-17 16:32:24.750000
760,-198.7,2021-12-17 16:32:24.765625
761,-205.65,2021-12-17 16:32:24.781250
762,-201.73,2021-12-17 16:32:24.796875
763,-189.41,2021-12-17 16:32:24.812500
764,-171.13,2021-12-17 16:32:24.828125
765,-151.74,2021-12-17 16:32:24.843750
766,-135.39,2021-12-17 16:32:24.859375
767,-123.35,2021-12-17 16:32:24.875000
768,-113.25,2021-12-17 16:32:24.890625
769,-99.93,2021-12-17 16:32:24.906250
770,-78.85,2021-12-17 16:32:24.921875
771,-47.2,2021-12-17 16:32:24.937500
772,-5.54,2021-12-17 16:32:24.953125
773,43.26,2021-12-17 16:32:24.968750
774,91.06,2021-12-17 16:32:24.984375
775,129.46,2021-12-17 16:32:25.000000
776,152.42,2021-12-17 16:32:25.015625
777,158.63,2021-12-17 16:32:25.031250
778,151.35,2021-12-17 16:32:25.046875
779,135.11,2021-12-17 16:32:25.062500
780,115.39,2021-12-17 16:32:25.078125
781,96.0,2021-12-17 16:32:25.093750
782,77.77,2021-12-17 16:32:25.109375
783,57.15,2021-12-17 16:32:25.125000
784,29.27,2021-12-17 16:32:25.140625
785,-11.09,2021-12-17 16:32:25.156250
786,-66.6,2021-12-17 16:32:25.171875
787,-136.27,2021-12-17 16:32:25.187500
788,-216.51,2021-12-17 16:32:25.203125
789,-294.03,2021-12-17 16:32:25.218750
790,-346.88,2021-12-17 16:32:25.234375
791,-357.08,2021-12-17 16:32:25.250000
792,-323.73,2021-12-17 16:32:25.265625
793,-259.99,2021-12-17 16:32:25.281250
794,-183.35,2021-12-17 16:32:25.296875
795,-110.04,2021-12-17 16:32:25.312500
796,-39.93,2021-12-17 16:32:25.328125
797,27.01,2021-12-17 16:32:25.343750
798,88.97,2021-12-17 16:32:25.359375
799,142.81,2021-12-17 16:32:25.375000
800,186.13,2021-12-17 16:32:25.390625
801,213.07,2021-12-17 16:32:25.406250
802,225.9,2021-12-17 16:32:25.421875
803,222.02,2021-12-17 16:32:25.437500
804,205.58,2021-12-17 16:32:25.453125
805,182.5,2021-12-17 16:32:25.468750
806,154.98,2021-12-17 16:32:25.484375
807,122.05,2021-12-17 16:32:25.500000
808,81.23,2021-12-17 16:32:25.515625
809,31.19,2021-12-17 16:32:25.531250
810,-26.36,2021-12-17 16:32:25.546875
811,-85.47,2021-12-17 16:32:25.562500
812,-139.45,2021-12-17 16:32:25.578125
813,-182.06,2021-12-17 16:32:25.593750
814,-210.99,2021-12-17 16:32:25.609375
815,-227.5,2021-12-17 16:32:25.625000
816,-233.06,2021-12-17 16:32:25.640625
817,-229.47,2021-12-17 16:32:25.656250
818,-219.35,2021-12-17 16:32:25.671875
819,-206.13,2021-12-17 16:32:25.687500
820,-191.98,2021-12-17 16:32:25.703125
821,-178.04,2021-12-17 16:32:25.718750
822,-163.44,2021-12-17 16:32:25.734375
823,-146.54,2021-12-17 16:32:25.750000
824,-125.93,2021-12-17 16:32:25.765625
825,-101.76,2021-12-17 16:32:25.781250
826,-74.87,2021-12-17 16:32:25.796875
827,-46.8,2021-12-17 16:32:25.812500
828,-19.46,2021-12-17 16:32:25.828125
829,6.1,2021-12-17 16:32:25.843750
830,29.38,2021-12-17 16:32:25.859375
831,51.24,2021-12-17 16:32:25.875000
832,72.94,2021-12-17 16:32:25.890625
833,95.62,2021-12-17 16:32:25.906250
834,120.6,2021-12-17 16:32:25.921875
835,149.05,2021-12-17 16:32:25.937500
836,181.26,2021-12-17 16:32:25.953125
837,215.55,2021-12-17 16:32:25.968750
838,248.51,2021-12-17 16:32:25.984375
839,275.13,2021-12-17 16:32:26.000000
840,290.67,2021-12-17 16:32:26.015625
841,292.23,2021-12-17 16:32:26.031250
842,279.76,2021-12-17 16:32:26.046875
843,256.12,2021-12-17 16:32:26.062500
844,225.96,2021-12-17 16:32:26.078125
845,194.08,2021-12-17 16:32:26.093750
846,164.09,2021-12-17 16:32:26.109375
847,138.26,2021-12-17 16:32:26.125000
848,117.91,2021-12-17 16:32:26.140625
849,103.84,2021-12-17 16:32:26.156250
850,96.2,2021-12-17 16:32:26.171875
851,94.1,2021-12-17 16:32:26.187500
852,95.26,2021-12-17 16:32:26.203125
853,96.58,2021-12-17 16:32:26.218750
854,95.16,2021-12-17 16:32:26.234375
855,89.35,2021-12-17 16:32:26.250000
856,79.23,2021-12-17 16:32:26.265625
857,66.22,2021-12-17 16:32:26.281250
858,52.16,2021-12-17 16:32:26.296875
859,38.62,2021-12-17 16:32:26.312500
860,26.53,2021-12-17 16:32:26.328125
861,16.2,2021-12-17 16:32:26.343750
862,7.71,2021-12-17 16:32:26.359375
863,1.01,2021-12-17 16:32:26.375000
864,-4.18,2021-12-17 16:32:26.390625
865,-8.34,2021-12-17 16:32:26.406250
866,-12.1,2021-12-17 16:32:26.421875
867,-15.94,2021-12-17 16:32:26.437500
868,-19.99,2021-12-17 16:32:26.453125
869,-24.18,2021-12-17 16:32:26.468750
870,-28.2,2021-12-17 16:32:26.484375
871,-31.69,2021-12-17 16:32:26.500000
872,-34.47,2021-12-17 16:32:26.515625
873,-36.47,2021-12-17 16:32:26.531250
874,-37.79,2021-12-17 16:32:26.546875
875,-38.63,2021-12-17 16:32:26.562500
876,-39.27,2021-12-17 16:32:26.578125
877,-39.92,2021-12-17 16:32:26.593750
878,-40.69,2021-12-17 16:32:26.609375
879,-41.52,2021-12-17 16:32:26.625000
880,-42.16,2021-12-17 16:32:26.640625
881,-42.36,2021-12-17 16:32:26.656250
882,-42.07,2021-12-17 16:32:26.671875
883,-41.38,2021-12-17 16:32:26.687500
884,-40.54,2021-12-17 16:32:26.703125
885,-39.9,2021-12-17 16:32:26.718750
886,-39.7,2021-12-17 16:32:26.734375
887,-39.93,2021-12-17 16:32:26.750000
888,-40.45,2021-12-17 16:32:26.765625
889,-40.94,2021-12-17 16:32:26.781250
890,-41.11,2021-12-17 16:32:26.796875
891,-40.8,2021-12-17 16:32:26.812500
892,-40.03,2021-12-17 16:32:26.828125
893,-38.84,2021-12-17 16:32:26.843750
894,-37.36,2021-12-17 16:32:26.859375
895,-35.62,2021-12-17 16:32:26.875000
896,-33.61,2021-12-17 16:32:26.890625
897,-31.3,2021-12-17 16:32:26.906250
898,-28.74,2021-12-17 16:32:26.921875
899,-26.11,2021-12-17 16:32:26.937500
900,-23.68,2021-12-17 16:32:26.953125
901,-21.75,2021-12-17 16:32:26.968750
902,-20.54,2021-12-17 16:32:26.984375
903,-20.04,2021-12-17 16:32:27.000000
904,-19.98,2021-12-17 16:32:27.015625
905,-20.01,2021-12-17 16:32:27.031250
906,-19.81,2021-12-17 16:32:27.046875
907,-19.18,2021-12-17 16:32:27.062500
908,-18.09,2021-12-17 16:32:27.078125
909,-16.62,2021-12-17 16:32:27.093750
910,-14.99,2021-12-17 16:32:27.109375
911,-13.38,2021-12-17 16:32:27.125000
912,-11.92,2021-12-17 16:32:27.140625
913,-10.67,2021-12-17 16:32:27.156250
914,-9.63,2021-12-17 16:32:27.171875
915,-8.85,2021-12-17 16:32:27.187500
916,-8.31,2021-12-17 16:32:27.203125
917,-8.08,2021-12-17 16:32:27.218750
918,-8.18,2021-12-17 16:32:27.234375
919,-8.66,2021-12-17 16:32:27.250000
920,-9.53,2021-12-17 16:32:27.265625
921,-10.72,2021-12-17 16:32:27.281250
922,-12.07,2021-12-17 16:32:27.296875
923,-13.42,2021-12-17 16:32:27.312500
924,-14.56,2021-12-17 16:32:27.328125
925,-15.31,2021-12-17 16:32:27.343750
926,-15.61,2021-12-17 16:32:27.359375
927,-15.51,2021-12-17 16:32:27.375000
928,-15.16,2021-12-17 16:32:27.390625
929,-14.89,2021-12-17 16:32:27.406250
930,-14.93,2021-12-17 16:32:27.421875
931,-15.36,2021-12-17 16:32:27.437500
932,-16.09,2021-12-17 16:32:27.453125
933,-16.83,2021-12-17 16:32:27.468750
934,-17.23,2021-12-17 16:32:27.484375
935,-17.07,2021-12-17 16:32:27.500000
936,-16.28,2021-12-17 16:32:27.515625
937,-14.94,2021-12-17 16:32:27.531250
938,-13.26,2021-12-17 16:32:27.546875
939,-11.42,2021-12-17 16:32:27.562500
940,-9.58,2021-12-17 16:32:27.578125
941,-7.86,2021-12-17 16:32:27.593750
942,-6.37,2021-12-17 16:32:27.609375
943,-5.32,2021-12-17 16:32:27.625000
944,-4.87,2021-12-17 16:32:27.640625
945,-5.04,2021-12-17 16:32:27.656250
946,-5.65,2021-12-17 16:32:27.671875
947,-6.3,2021-12-17 16:32:27.687500
948,-6.59,2021-12-17 16:32:27.703125
949,-6.31,2021-12-17 16:32:27.718750
950,-5.43,2021-12-17 16:32:27.734375
951,-4.09,2021-12-17 16:32:27.750000
952,-2.74,2021-12-17 16:32:27.765625
953,-1.76,2021-12-17 16:32:27.781250
954,-1.27,2021-12-17 16:32:27.796875
955,-1.12,2021-12-17 16:32:27.812500
956,-0.92,2021-12-17 16:32:27.828125
957,-0.26,2021-12-17 16:32:27.843750
958,1.04,2021-12-17 16:32:27.859375
959,3.03,2021-12-17 16:32:27.875000
960,5.61,2021-12-17 16:32:27.890625
961,8.29,2021-12-17 16:32:27.906250
962,10.55,2021-12-17 16:32:27.921875
963,12.06,2021-12-17 16:32:27.937500
964,12.81,2021-12-17 16:32:27.953125
965,13.04,2021-12-17 16:32:27.968750
966,13.06,2021-12-17 16:32:27.984375
967,13.21,2021-12-17 16:32:28.000000
968,13.91,2021-12-17 16:32:28.015625
969,15.64,2021-12-17 16:32:28.031250
970,18.0,2021-12-17 16:32:28.046875
971,20.25,2021-12-17 16:32:28.062500
972,21.72,2021-12-17 16:32:28.078125
973,22.35,2021-12-17 16:32:28.093750
974,22.67,2021-12-17 16:32:28.109375
975,23.37,2021-12-17 16:32:28.125000
976,25.09,2021-12-17 16:32:28.140625
977,28.49,2021-12-17 16:32:28.156250
978,33.92,2021-12-17 16:32:28.171875
979,39.74,2021-12-17 16:32:28.187500
980,43.69,2021-12-17 16:32:28.203125
981,44.22,2021-12-17 16:32:28.218750
982,41.56,2021-12-17 16:32:28.234375
983,37.55,2021-12-17 16:32:28.250000
984,34.33,2021-12-17 16:32:28.265625
985,33.49,2021-12-17 16:32:28.281250
986,36.39,2021-12-17 16:32:28.296875
987,43.43,2021-12-17 16:32:28.312500
988,51.59,2021-12-17 16:32:28.328125
989,56.94,2021-12-17 16:32:28.343750
990,56.89,2021-12-17 16:32:28.359375
991,51.72,2021-12-17 16:32:28.375000
992,43.93,2021-12-17 16:32:28.390625
993,35.86,2021-12-17 16:32:28.406250
994,28.53,2021-12-17 16:32:28.421875
995,22.54,2021-12-17 16:32:28.437500
996,17.33,2021-12-17 16:32:28.453125
997,8.13,2021-12-17 16:32:28.468750
998,-10.61,2021-12-17 16:32:28.484375
999,-42.79,2021-12-17 16:32:28.500000
1000,-89.06,2021-12-17 16:32:28.515625
1001,-148.14,2021-12-17 16:32:28.531250
1002,-219.01,2021-12-17 16:32:28.546875
1003,-301.09,2021-12-17 16:32:28.562500
1004,-391.14,2021-12-17 16:32:28.578125
1005,-467.7,2021-12-17 16:32:28.593750
1006,-506.43,2021-12-17 16:32:28.609375
1007,-491.7,2021-12-17 16:32:28.625000
1008,-427.71,2021-12-17 16:32:28.640625
1009,-332.8,2021-12-17 16:32:28.656250
1010,-225.83,2021-12-17 16:32:28.671875
1011,-119.91,2021-12-17 16:32:28.687500
1012,-22.61,2021-12-17 16:32:28.703125
1013,62.5,2021-12-17 16:32:28.718750
1014,140.03,2021-12-17 16:32:28.734375
1015,207.76,2021-12-17 16:32:28.750000
1016,260.04,2021-12-17 16:32:28.765625
1017,292.23,2021-12-17 16:32:28.781250
1018,304.67,2021-12-17 16:32:28.796875
1019,303.13,2021-12-17 16:32:28.812500
1020,296.91,2021-12-17 16:32:28.828125
1021,281.11,2021-12-17 16:32:28.843750
1022,259.57,2021-12-17 16:32:28.859375
1023,238.78,2021-12-17 16:32:28.875000
1024,219.39,2021-12-17 16:32:28.890625
1025,196.59,2021-12-17 16:32:28.906250
1026,163.7,2021-12-17 16:32:28.921875
1027,117.88,2021-12-17 16:32:28.937500
1028,62.34,2021-12-17 16:32:28.953125
1029,4.4,2021-12-17 16:32:28.968750
1030,-47.92,2021-12-17 16:32:28.984375
1031,-90.0,2021-12-17 16:32:29.000000
1032,-119.62,2021-12-17 16:32:29.015625
1033,-139.02,2021-12-17 16:32:29.031250
1034,-151.6,2021-12-17 16:32:29.046875
1035,-159.7,2021-12-17 16:32:29.062500
1036,-163.21,2021-12-17 16:32:29.078125
1037,-160.73,2021-12-17 16:32:29.093750
1038,-151.07,2021-12-17 16:32:29.109375
1039,-130.99,2021-12-17 16:32:29.125000
1040,-99.49,2021-12-17 16:32:29.140625
1041,-58.57,2021-12-17 16:32:29.156250
1042,-14.35,2021-12-17 16:32:29.171875
1043,25.16,2021-12-17 16:32:29.187500
1044,52.77,2021-12-17 16:32:29.203125
1045,64.45,2021-12-17 16:32:29.218750
1046,60.06,2021-12-17 16:32:29.234375
1047,42.25,2021-12-17 16:32:29.250000
1048,14.73,2021-12-17 16:32:29.265625
1049,-18.24,2021-12-17 16:32:29.281250
1050,-52.5,2021-12-17 16:32:29.296875
1051,-84.32,2021-12-17 16:32:29.312500
1052,-109.09,2021-12-17 16:32:29.328125
1053,-121.11,2021-12-17 16:32:29.343750
1054,-115.37,2021-12-17 16:32:29.359375
1055,-90.14,2021-12-17 16:32:29.375000
1056,-49.15,2021-12-17 16:32:29.390625
1057,-0.7,2021-12-17 16:32:29.406250
1058,45.67,2021-12-17 16:32:29.421875
1059,83.85,2021-12-17 16:32:29.437500
1060,113.54,2021-12-17 16:32:29.453125
1061,140.18,2021-12-17 16:32:29.468750
1062,171.66,2021-12-17 16:32:29.484375
1063,213.95,2021-12-17 16:32:29.500000
1064,268.08,2021-12-17 16:32:29.515625
1065,329.44,2021-12-17 16:32:29.531250
1066,389.67,2021-12-17 16:32:29.546875
1067,438.83,2021-12-17 16:32:29.562500
1068,468.06,2021-12-17 16:32:29.578125
1069,470.58,2021-12-17 16:32:29.593750
1070,442.49,2021-12-17 16:32:29.609375
1071,383.42,2021-12-17 16:32:29.625000
1072,296.93,2021-12-17 16:32:29.640625
1073,190.7,2021-12-17 16:32:29.656250
1074,75.5,2021-12-17 16:32:29.671875
1075,-37.11,2021-12-17 16:32:29.687500
1076,-137.43,2021-12-17 16:32:29.703125
1077,-219.33,2021-12-17 16:32:29.718750
1078,-280.67,2021-12-17 16:32:29.734375
1079,-322.37,2021-12-17 16:32:29.750000
1080,-347.28,2021-12-17 16:32:29.765625
1081,-359.5,2021-12-17 16:32:29.781250
1082,-363.94,2021-12-17 16:32:29.796875
1083,-365.97,2021-12-17 16:32:29.812500
1084,-370.05,2021-12-17 16:32:29.828125
1085,-377.96,2021-12-17 16:32:29.843750
1086,-387.47,2021-12-17 16:32:29.859375
1087,-392.82,2021-12-17 16:32:29.875000
1088,-387.35,2021-12-17 16:32:29.890625
1089,-366.89,2021-12-17 16:32:29.906250
1090,-332.54,2021-12-17 16:32:29.921875
1091,-290.73,2021-12-17 16:32:29.937500
1092,-250.99,2021-12-17 16:32:29.953125
1093,-221.86,2021-12-17 16:32:29.968750
1094,-207.7,2021-12-17 16:32:29.984375
1095,-207.58,2021-12-17 16:32:30.000000
1096,-216.72,2021-12-17 16:32:30.015625
1097,-229.34,2021-12-17 16:32:30.031250
1098,-241.04,2021-12-17 16:32:30.046875
1099,-249.72,2021-12-17 16:32:30.062500
1100,-255.1,2021-12-17 16:32:30.078125
1101,-257.44,2021-12-17 16:32:30.093750
1102,-256.42,2021-12-17 16:32:30.109375
1103,-251.0,2021-12-17 16:32:30.125000
1104,-239.93,2021-12-17 16:32:30.140625
1105,-222.49,2021-12-17 16:32:30.156250
1106,-198.73,2021-12-17 16:32:30.171875
1107,-169.69,2021-12-17 16:32:30.187500
1108,-136.84,2021-12-17 16:32:30.203125
1109,-101.73,2021-12-17 16:32:30.218750
1110,-65.37,2021-12-17 16:32:30.234375
1111,-28.15,2021-12-17 16:32:30.250000
1112,10.11,2021-12-17 16:32:30.265625
1113,49.73,2021-12-17 16:32:30.281250
1114,90.79,2021-12-17 16:32:30.296875
1115,132.87,2021-12-17 16:32:30.312500
1116,175.29,2021-12-17 16:32:30.328125
1117,217.5,2021-12-17 16:32:30.343750
1118,259.42,2021-12-17 16:32:30.359375
1119,301.11,2021-12-17 16:32:30.375000
1120,342.08,2021-12-17 16:32:30.390625
1121,380.4,2021-12-17 16:32:30.406250
1122,412.66,2021-12-17 16:32:30.421875
1123,434.72,2021-12-17 16:32:30.437500
1124,443.32,2021-12-17 16:32:30.453125
1125,437.5,2021-12-17 16:32:30.468750
1126,419.23,2021-12-17 16:32:30.484375
1127,392.68,2021-12-17 16:32:30.500000
1128,362.77,2021-12-17 16:32:30.515625
1129,333.47,2021-12-17 16:32:30.531250
1130,306.83,2021-12-17 16:32:30.546875
1131,283.47,2021-12-17 16:32:30.562500
1132,263.26,2021-12-17 16:32:30.578125
1133,246.03,2021-12-17 16:32:30.593750
1134,231.73,2021-12-17 16:32:30.609375
1135,220.12,2021-12-17 16:32:30.625000
1136,210.49,2021-12-17 16:32:30.640625
1137,201.63,2021-12-17 16:32:30.656250
1138,192.05,2021-12-17 16:32:30.671875
1139,180.63,2021-12-17 16:32:30.687500
1140,167.23,2021-12-17 16:32:30.703125
1141,152.77,2021-12-17 16:32:30.718750
1142,138.68,2021-12-17 16:32:30.734375
1143,126.13,2021-12-17 16:32:30.750000
1144,115.78,2021-12-17 16:32:30.765625
1145,107.57,2021-12-17 16:32:30.781250
1146,100.77,2021-12-17 16:32:30.796875
1147,93.98,2021-12-17 16:32:30.812500
1148,85.74,2021-12-17 16:32:30.828125
1149,75.41,2021-12-17 16:32:30.843750
1150,63.77,2021-12-17 16:32:30.859375
1151,51.96,2021-12-17 16:32:30.875000
1152,41.05,2021-12-17 16:32:30.890625
1153,31.95,2021-12-17 16:32:30.906250
1154,25.57,2021-12-17 16:32:30.921875
1155,23.1,2021-12-17 16:32:30.937500
1156,24.65,2021-12-17 16:32:30.953125
1157,29.32,2021-12-17 16:32:30.968750
1158,35.63,2021-12-17 16:32:30.984375
1159,42.59,2021-12-17 16:32:31.000000
1160,48.97,2021-12-17 16:32:31.015625
1161,53.92,2021-12-17 16:32:31.031250
1162,57.82,2021-12-17 16:32:31.046875
1163,62.49,2021-12-17 16:32:31.062500
1164,71.09,2021-12-17 16:32:31.078125
1165,84.32,2021-12-17 16:32:31.093750
1166,99.64,2021-12-17 16:32:31.109375
1167,112.01,2021-12-17 16:32:31.125000
1168,116.28,2021-12-17 16:32:31.140625
1169,107.63,2021-12-17 16:32:31.156250
1170,82.72,2021-12-17 16:32:31.171875
1171,41.11,2021-12-17 16:32:31.187500
1172,-14.58,2021-12-17 16:32:31.203125
1173,-78.19,2021-12-17 16:32:31.218750
1174,-144.72,2021-12-17 16:32:31.234375
1175,-210.95,2021-12-17 16:32:31.250000
1176,-279.1,2021-12-17 16:32:31.265625
1177,-340.36,2021-12-17 16:32:31.281250
1178,-380.27,2021-12-17 16:32:31.296875
1179,-388.54,2021-12-17 16:32:31.312500
1180,-365.36,2021-12-17 16:32:31.328125
1181,-321.83,2021-12-17 16:32:31.343750
1182,-263.79,2021-12-17 16:32:31.359375
1183,-195.74,2021-12-17 16:32:31.375000
1184,-121.67,2021-12-17 16:32:31.390625
1185,-44.38,2021-12-17 16:32:31.406250
1186,32.07,2021-12-17 16:32:31.421875
1187,103.35,2021-12-17 16:32:31.437500
1188,165.5,2021-12-17 16:32:31.453125
1189,216.14,2021-12-17 16:32:31.468750
1190,243.48,2021-12-17 16:32:31.484375
1191,244.27,2021-12-17 16:32:31.500000
1192,223.64,2021-12-17 16:32:31.515625
1193,192.14,2021-12-17 16:32:31.531250
1194,158.77,2021-12-17 16:32:31.546875
1195,127.61,2021-12-17 16:32:31.562500
1196,98.12,2021-12-17 16:32:31.578125
1197,68.48,2021-12-17 16:32:31.593750
1198,38.07,2021-12-17 16:32:31.609375
1199,9.08,2021-12-17 16:32:31.625000
1200,-13.45,2021-12-17 16:32:31.640625
1201,-26.72,2021-12-17 16:32:31.656250
1202,-31.49,2021-12-17 16:32:31.671875
1203,-30.89,2021-12-17 16:32:31.687500
1204,-27.66,2021-12-17 16:32:31.703125
1205,-22.97,2021-12-17 16:32:31.718750
1206,-16.46,2021-12-17 16:32:31.734375
1207,-9.48,2021-12-17 16:32:31.750000
1208,-1.45,2021-12-17 16:32:31.765625
1209,10.24,2021-12-17 16:32:31.781250
1210,27.6,2021-12-17 16:32:31.796875
1211,51.18,2021-12-17 16:32:31.812500
1212,79.56,2021-12-17 16:32:31.828125
1213,109.64,2021-12-17 16:32:31.843750
1214,136.85,2021-12-17 16:32:31.859375
1215,155.69,2021-12-17 16:32:31.875000
1216,158.29,2021-12-17 16:32:31.890625
1217,140.16,2021-12-17 16:32:31.906250
1218,103.04,2021-12-17 16:32:31.921875
1219,53.75,2021-12-17 16:32:31.937500
1220,1.29,2021-12-17 16:32:31.953125
1221,-46.6,2021-12-17 16:32:31.968750
1222,-85.46,2021-12-17 16:32:31.984375
1223,-115.23,2021-12-17 16:32:32.000000
1224,-132.53,2021-12-17 16:32:32.015625
1225,-141.57,2021-12-17 16:32:32.031250
1226,-147.32,2021-12-17 16:32:32.046875
1227,-152.96,2021-12-17 16:32:32.062500
1228,-159.42,2021-12-17 16:32:32.078125
1229,-167.06,2021-12-17 16:32:32.093750
1230,-177.3,2021-12-17 16:32:32.109375
1231,-192.33,2021-12-17 16:32:32.125000
1232,-213.71,2021-12-17 16:32:32.140625
1233,-241.06,2021-12-17 16:32:32.156250
1234,-277.23,2021-12-17 16:32:32.171875
1235,-322.64,2021-12-17 16:32:32.187500
1236,-375.03,2021-12-17 16:32:32.203125
1237,-430.37,2021-12-17 16:32:32.218750
1238,-485.18,2021-12-17 16:32:32.234375
1239,-538.04,2021-12-17 16:32:32.250000
1240,-588.81,2021-12-17 16:32:32.265625
1241,-636.87,2021-12-17 16:32:32.281250
1242,-652.49,2021-12-17 16:32:32.296875
1243,-616.39,2021-12-17 16:32:32.312500
1244,-526.86,2021-12-17 16:32:32.328125
1245,-402.75,2021-12-17 16:32:32.343750
1246,-270.92,2021-12-17 16:32:32.359375
1247,-152.0,2021-12-17 16:32:32.375000
1248,-55.3,2021-12-17 16:32:32.390625
1249,19.25,2021-12-17 16:32:32.406250
1250,76.67,2021-12-17 16:32:32.421875
1251,123.92,2021-12-17 16:32:32.437500
1252,162.39,2021-12-17 16:32:32.453125
1253,192.62,2021-12-17 16:32:32.468750
1254,215.51,2021-12-17 16:32:32.484375
1255,233.01,2021-12-17 16:32:32.500000
1256,247.13,2021-12-17 16:32:32.515625
1257,258.66,2021-12-17 16:32:32.531250
1258,268.88,2021-12-17 16:32:32.546875
1259,277.7,2021-12-17 16:32:32.562500
1260,284.94,2021-12-17 16:32:32.578125
1261,286.79,2021-12-17 16:32:32.593750
1262,280.39,2021-12-17 16:32:32.609375
1263,264.59,2021-12-17 16:32:32.625000
1264,240.4,2021-12-17 16:32:32.640625
1265,210.08,2021-12-17 16:32:32.656250
1266,175.93,2021-12-17 16:32:32.671875
1267,139.86,2021-12-17 16:32:32.687500
1268,102.87,2021-12-17 16:32:32.703125
1269,65.56,2021-12-17 16:32:32.718750
1270,26.48,2021-12-17 16:32:32.734375
1271,-14.14,2021-12-17 16:32:32.750000
1272,-50.91,2021-12-17 16:32:32.765625
1273,-75.0,2021-12-17 16:32:32.781250
1274,-79.33,2021-12-17 16:32:32.796875
1275,-63.33,2021-12-17 16:32:32.812500
1276,-33.63,2021-12-17 16:32:32.828125
1277,-1.6,2021-12-17 16:32:32.843750
1278,21.58,2021-12-17 16:32:32.859375
1279,28.09,2021-12-17 16:32:32.875000
1280,16.82,2021-12-17 16:32:32.890625
1281,-8.12,2021-12-17 16:32:32.906250
1282,-40.58,2021-12-17 16:32:32.921875
1283,-75.41,2021-12-17 16:32:32.937500
1284,-110.13,2021-12-17 16:32:32.953125
1285,-143.89,2021-12-17 16:32:32.968750
1286,-176.16,2021-12-17 16:32:32.984375
1287,-205.61,2021-12-17 16:32:33.000000
1288,-231.93,2021-12-17 16:32:33.015625
1289,-253.32,2021-12-17 16:32:33.031250
1290,-269.25,2021-12-17 16:32:33.046875
1291,-280.8,2021-12-17 16:32:33.062500
1292,-290.05,2021-12-17 16:32:33.078125
1293,-299.28,2021-12-17 16:32:33.093750
1294,-309.53,2021-12-17 16:32:33.109375
1295,-320.31,2021-12-17 16:32:33.125000
1296,-329.86,2021-12-17 16:32:33.140625
1297,-336.07,2021-12-17 16:32:33.156250
1298,-336.2,2021-12-17 16:32:33.171875
1299,-328.58,2021-12-17 16:32:33.187500
1300,-312.62,2021-12-17 16:32:33.203125
1301,-288.36,2021-12-17 16:32:33.218750
1302,-255.85,2021-12-17 16:32:33.234375
1303,-214.51,2021-12-17 16:32:33.250000
1304,-162.94,2021-12-17 16:32:33.265625
1305,-98.63,2021-12-17 16:32:33.281250
1306,-25.39,2021-12-17 16:32:33.296875
1307,52.28,2021-12-17 16:32:33.312500
1308,128.3,2021-12-17 16:32:33.328125
1309,195.88,2021-12-17 16:32:33.343750
1310,248.82,2021-12-17 16:32:33.359375
1311,282.76,2021-12-17 16:32:33.375000
1312,296.07,2021-12-17 16:32:33.390625
1313,289.83,2021-12-17 16:32:33.406250
1314,267.3,2021-12-17 16:32:33.421875
1315,232.82,2021-12-17 16:32:33.437500
1316,191.97,2021-12-17 16:32:33.453125
1317,149.88,2021-12-17 16:32:33.468750
1318,110.94,2021-12-17 16:32:33.484375
1319,78.83,2021-12-17 16:32:33.500000
1320,56.65,2021-12-17 16:32:33.515625
1321,47.01,2021-12-17 16:32:33.531250
1322,51.74,2021-12-17 16:32:33.546875
1323,71.44,2021-12-17 16:32:33.562500
1324,105.09,2021-12-17 16:32:33.578125
1325,150.81,2021-12-17 16:32:33.593750
1326,205.34,2021-12-17 16:32:33.609375
1327,264.64,2021-12-17 16:32:33.625000
1328,324.47,2021-12-17 16:32:33.640625
1329,381.03,2021-12-17 16:32:33.656250
1330,431.48,2021-12-17 16:32:33.671875
1331,474.14,2021-12-17 16:32:33.687500
1332,508.63,2021-12-17 16:32:33.703125
1333,535.75,2021-12-17 16:32:33.718750
1334,557.42,2021-12-17 16:32:33.734375
1335,575.15,2021-12-17 16:32:33.750000
1336,588.47,2021-12-17 16:32:33.765625
1337,593.98,2021-12-17 16:32:33.781250
1338,585.82,2021-12-17 16:32:33.796875
1339,557.39,2021-12-17 16:32:33.812500
1340,504.18,2021-12-17 16:32:33.828125
1341,425.77,2021-12-17 16:32:33.843750
1342,326.58,2021-12-17 16:32:33.859375
1343,215.03,2021-12-17 16:32:33.875000
1344,101.26,2021-12-17 16:32:33.890625
1345,-5.09,2021-12-17 16:32:33.906250
1346,-96.29,2021-12-17 16:32:33.921875
1347,-167.13,2021-12-17 16:32:33.937500
1348,-215.23,2021-12-17 16:32:33.953125
1349,-240.97,2021-12-17 16:32:33.968750
1350,-247.39,2021-12-17 16:32:33.984375
1351,-239.57,2021-12-17 16:32:34.000000
1352,-223.33,2021-12-17 16:32:34.015625
1353,-203.86,2021-12-17 16:32:34.031250
1354,-184.63,2021-12-17 16:32:34.046875
1355,-166.95,2021-12-17 16:32:34.062500
1356,-150.52,2021-12-17 16:32:34.078125
1357,-134.53,2021-12-17 16:32:34.093750
1358,-118.38,2021-12-17 16:32:34.109375
1359,-101.93,2021-12-17 16:32:34.125000
1360,-85.43,2021-12-17 16:32:34.140625
1361,-69.14,2021-12-17 16:32:34.156250
1362,-53.43,2021-12-17 16:32:34.171875
1363,-38.91,2021-12-17 16:32:34.187500
1364,-26.25,2021-12-17 16:32:34.203125
1365,-16.09,2021-12-17 16:32:34.218750
1366,-8.8,2021-12-17 16:32:34.234375
1367,-4.24,2021-12-17 16:32:34.250000
1368,-1.72,2021-12-17 16:32:34.265625
1369,-0.26,2021-12-17 16:32:34.281250
1370,1.08,2021-12-17 16:32:34.296875
1371,2.9,2021-12-17 16:32:34.312500
1372,5.33,2021-12-17 16:32:34.328125
1373,8.28,2021-12-17 16:32:34.343750
1374,11.65,2021-12-17 16:32:34.359375
1375,15.09,2021-12-17 16:32:34.375000
1376,18.23,2021-12-17 16:32:34.390625
1377,20.86,2021-12-17 16:32:34.406250
1378,23.1,2021-12-17 16:32:34.421875
1379,25.53,2021-12-17 16:32:34.437500
1380,28.87,2021-12-17 16:32:34.453125
1381,33.66,2021-12-17 16:32:34.468750
1382,40.06,2021-12-17 16:32:34.484375
1383,47.94,2021-12-17 16:32:34.500000
1384,56.03,2021-12-17 16:32:34.515625
1385,62.63,2021-12-17 16:32:34.531250
1386,66.62,2021-12-17 16:32:34.546875
1387,68.2,2021-12-17 16:32:34.562500
1388,68.83,2021-12-17 16:32:34.578125
1389,70.73,2021-12-17 16:32:34.593750
1390,75.4,2021-12-17 16:32:34.609375
1391,83.45,2021-12-17 16:32:34.625000
1392,94.75,2021-12-17 16:32:34.640625
1393,107.49,2021-12-17 16:32:34.656250
1394,119.04,2021-12-17 16:32:34.671875
1395,127.4,2021-12-17 16:32:34.687500
1396,131.9,2021-12-17 16:32:34.703125
1397,132.78,2021-12-17 16:32:34.718750
1398,130.83,2021-12-17 16:32:34.734375
1399,125.99,2021-12-17 16:32:34.750000
1400,118.19,2021-12-17 16:32:34.765625
1401,107.74,2021-12-17 16:32:34.781250
1402,93.71,2021-12-17 16:32:34.796875
1403,73.7,2021-12-17 16:32:34.812500
1404,44.89,2021-12-17 16:32:34.828125
1405,4.88,2021-12-17 16:32:34.843750
1406,-47.52,2021-12-17 16:32:34.859375
1407,-110.92,2021-12-17 16:32:34.875000
1408,-181.95,2021-12-17 16:32:34.890625
1409,-254.8,2021-12-17 16:32:34.906250
1410,-314.48,2021-12-17 16:32:34.921875
1411,-344.53,2021-12-17 16:32:34.937500
1412,-337.56,2021-12-17 16:32:34.953125
1413,-299.16,2021-12-17 16:32:34.968750
1414,-243.06,2021-12-17 16:32:34.984375
1415,-186.41,2021-12-17 16:32:35.000000
1416,-134.41,2021-12-17 16:32:35.015625
1417,-88.07,2021-12-17 16:32:35.031250
1418,-46.99,2021-12-17 16:32:35.046875
1419,-11.02,2021-12-17 16:32:35.062500
1420,17.99,2021-12-17 16:32:35.078125
1421,34.3,2021-12-17 16:32:35.093750
1422,33.64,2021-12-17 16:32:35.109375
1423,14.71,2021-12-17 16:32:35.125000
1424,-20.48,2021-12-17 16:32:35.140625
1425,-67.84,2021-12-17 16:32:35.156250
1426,-124.38,2021-12-17 16:32:35.171875
1427,-187.92,2021-12-17 16:32:35.187500
1428,-256.14,2021-12-17 16:32:35.203125
1429,-326.37,2021-12-17 16:32:35.218750
1430,-394.51,2021-12-17 16:32:35.234375
1431,-454.33,2021-12-17 16:32:35.250000
1432,-499.05,2021-12-17 16:32:35.265625
1433,-523.87,2021-12-17 16:32:35.281250
1434,-527.46,2021-12-17 16:32:35.296875
1435,-512.92,2021-12-17 16:32:35.312500
1436,-484.75,2021-12-17 16:32:35.328125
1437,-446.33,2021-12-17 16:32:35.343750
1438,-399.64,2021-12-17 16:32:35.359375
1439,-346.13,2021-12-17 16:32:35.375000
1440,-287.43,2021-12-17 16:32:35.390625
1441,-226.2,2021-12-17 16:32:35.406250
1442,-165.9,2021-12-17 16:32:35.421875
1443,-109.34,2021-12-17 16:32:35.437500
1444,-58.07,2021-12-17 16:32:35.453125
1445,-11.45,2021-12-17 16:32:35.468750
1446,32.76,2021-12-17 16:32:35.484375
1447,76.68,2021-12-17 16:32:35.500000
1448,121.02,2021-12-17 16:32:35.515625
1449,165.13,2021-12-17 16:32:35.531250
1450,207.34,2021-12-17 16:32:35.546875
1451,245.26,2021-12-17 16:32:35.562500
1452,276.33,2021-12-17 16:32:35.578125
1453,298.23,2021-12-17 16:32:35.593750
1454,309.92,2021-12-17 16:32:35.609375
1455,311.73,2021-12-17 16:32:35.625000
1456,305.29,2021-12-17 16:32:35.640625
1457,292.82,2021-12-17 16:32:35.656250
1458,276.49,2021-12-17 16:32:35.671875
1459,258.13,2021-12-17 16:32:35.687500
1460,239.22,2021-12-17 16:32:35.703125
1461,221.22,2021-12-17 16:32:35.718750
1462,205.43,2021-12-17 16:32:35.734375
1463,192.79,2021-12-17 16:32:35.750000
1464,183.02,2021-12-17 16:32:35.765625
1465,174.51,2021-12-17 16:32:35.781250
1466,164.83,2021-12-17 16:32:35.796875
1467,151.83,2021-12-17 16:32:35.812500
1468,134.77,2021-12-17 16:32:35.828125
1469,114.83,2021-12-17 16:32:35.843750
1470,94.55,2021-12-17 16:32:35.859375
1471,76.75,2021-12-17 16:32:35.875000
1472,63.28,2021-12-17 16:32:35.890625
1473,54.46,2021-12-17 16:32:35.906250
1474,49.28,2021-12-17 16:32:35.921875
1475,46.18,2021-12-17 16:32:35.937500
1476,43.77,2021-12-17 16:32:35.953125
1477,41.28,2021-12-17 16:32:35.968750
1478,38.47,2021-12-17 16:32:35.984375
1479,35.35,2021-12-17 16:32:36.000000
1480,32.0,2021-12-17 16:32:36.015625
1481,28.29,2021-12-17 16:32:36.031250
1482,23.98,2021-12-17 16:32:36.046875
1483,18.98,2021-12-17 16:32:36.062500
1484,13.44,2021-12-17 16:32:36.078125
1485,7.83,2021-12-17 16:32:36.093750
1486,2.87,2021-12-17 16:32:36.109375
1487,-0.69,2021-12-17 16:32:36.125000
1488,-2.34,2021-12-17 16:32:36.140625
1489,-1.89,2021-12-17 16:32:36.156250
1490,0.32,2021-12-17 16:32:36.171875
1491,3.59,2021-12-17 16:32:36.187500
1492,7.04,2021-12-17 16:32:36.203125
1493,9.96,2021-12-17 16:32:36.218750
1494,11.89,2021-12-17 16:32:36.234375
1495,12.67,2021-12-17 16:32:36.250000
1496,12.32,2021-12-17 16:32:36.265625
1497,10.93,2021-12-17 16:32:36.281250
1498,8.62,2021-12-17 16:32:36.296875
1499,5.61,2021-12-17 16:32:36.312500
1500,2.32,2021-12-17 16:32:36.328125
1501,-0.63,2021-12-17 16:32:36.343750
1502,-2.53,2021-12-17 16:32:36.359375
1503,-2.81,2021-12-17 16:32:36.375000
1504,-1.27,2021-12-17 16:32:36.390625
1505,1.89,2021-12-17 16:32:36.406250
1506,6.11,2021-12-17 16:32:36.421875
1507,10.74,2021-12-17 16:32:36.437500
1508,15.27,2021-12-17 16:32:36.453125
1509,19.43,2021-12-17 16:32:36.468750
1510,23.16,2021-12-17 16:32:36.484375
1511,26.4,2021-12-17 16:32:36.500000
1512,29.03,2021-12-17 16:32:36.515625
1513,30.77,2021-12-17 16:32:36.531250
1514,31.46,2021-12-17 16:32:36.546875
1515,31.22,2021-12-17 16:32:36.562500
1516,30.6,2021-12-17 16:32:36.578125
1517,30.45,2021-12-17 16:32:36.593750
1518,31.55,2021-12-17 16:32:36.609375
1519,34.19,2021-12-17 16:32:36.625000
1520,37.9,2021-12-17 16:32:36.640625
1521,41.5,2021-12-17 16:32:36.656250
1522,43.64,2021-12-17 16:32:36.671875
1523,43.45,2021-12-17 16:32:36.687500
1524,40.9,2021-12-17 16:32:36.703125
1525,37.05,2021-12-17 16:32:36.718750
1526,33.38,2021-12-17 16:32:36.734375
1527,31.17,2021-12-17 16:32:36.750000
1528,30.88,2021-12-17 16:32:36.765625
1529,32.01,2021-12-17 16:32:36.781250
1530,33.2,2021-12-17 16:32:36.796875
1531,33.16,2021-12-17 16:32:36.812500
1532,31.18,2021-12-17 16:32:36.828125
1533,27.2,2021-12-17 16:32:36.843750
1534,21.39,2021-12-17 16:32:36.859375
1535,13.21,2021-12-17 16:32:36.875000
1536,0.88,2021-12-17 16:32:36.890625
1537,-18.32,2021-12-17 16:32:36.906250
1538,-46.64,2021-12-17 16:32:36.921875
1539,-84.34,2021-12-17 16:32:36.937500
1540,-128.26,2021-12-17 16:32:36.953125
1541,-171.9,2021-12-17 16:32:36.968750
1542,-207.26,2021-12-17 16:32:36.984375
1543,-227.2,2021-12-17 16:32:37.000000
1544,-227.66,2021-12-17 16:32:37.015625
1545,-208.37,2021-12-17 16:32:37.031250
1546,-172.44,2021-12-17 16:32:37.046875
1547,-125.63,2021-12-17 16:32:37.062500
1548,-75.86,2021-12-17 16:32:37.078125
1549,-32.8,2021-12-17 16:32:37.093750
1550,-6.85,2021-12-17 16:32:37.109375
1551,-6.68,2021-12-17 16:32:37.125000
1552,-35.77,2021-12-17 16:32:37.140625
1553,-89.7,2021-12-17 16:32:37.156250
1554,-156.05,2021-12-17 16:32:37.171875
1555,-217.75,2021-12-17 16:32:37.187500
1556,-258.98,2021-12-17 16:32:37.203125
1557,-270.52,2021-12-17 16:32:37.218750
1558,-252.29,2021-12-17 16:32:37.234375
1559,-212.05,2021-12-17 16:32:37.250000
1560,-161.19,2021-12-17 16:32:37.265625
1561,-109.84,2021-12-17 16:32:37.281250
1562,-63.86,2021-12-17 16:32:37.296875
1563,-24.27,2021-12-17 16:32:37.312500
1564,10.74,2021-12-17 16:32:37.328125
1565,43.36,2021-12-17 16:32:37.343750
1566,74.37,2021-12-17 16:32:37.359375
1567,102.87,2021-12-17 16:32:37.375000
1568,127.4,2021-12-17 16:32:37.390625
1569,147.57,2021-12-17 16:32:37.406250
1570,165.06,2021-12-17 16:32:37.421875
1571,183.08,2021-12-17 16:32:37.437500
1572,204.74,2021-12-17 16:32:37.453125
1573,231.15,2021-12-17 16:32:37.468750
1574,260.46,2021-12-17 16:32:37.484375
1575,288.57,2021-12-17 16:32:37.500000
1576,310.87,2021-12-17 16:32:37.515625
1577,323.91,2021-12-17 16:32:37.531250
1578,326.32,2021-12-17 16:32:37.546875
1579,318.24,2021-12-17 16:32:37.562500
1580,300.24,2021-12-17 16:32:37.578125
1581,272.68,2021-12-17 16:32:37.593750
1582,235.74,2021-12-17 16:32:37.609375
1583,190.38,2021-12-17 16:32:37.625000
1584,139.02,2021-12-17 16:32:37.640625
1585,85.32,2021-12-17 16:32:37.656250
1586,33.21,2021-12-17 16:32:37.671875
1587,-14.15,2021-12-17 16:32:37.687500
1588,-54.96,2021-12-17 16:32:37.703125
1589,-89.01,2021-12-17 16:32:37.718750
1590,-117.0,2021-12-17 16:32:37.734375
1591,-139.93,2021-12-17 16:32:37.750000
1592,-158.52,2021-12-17 16:32:37.765625
1593,-173.17,2021-12-17 16:32:37.781250
1594,-184.21,2021-12-17 16:32:37.796875
1595,-192.61,2021-12-17 16:32:37.812500
1596,-200.08,2021-12-17 16:32:37.828125
1597,-208.65,2021-12-17 16:32:37.843750
1598,-219.77,2021-12-17 16:32:37.859375
1599,-233.5,2021-12-17 16:32:37.875000
1600,-248.08,2021-12-17 16:32:37.890625
1601,-259.97,2021-12-17 16:32:37.906250
1602,-264.5,2021-12-17 16:32:37.921875
1603,-256.79,2021-12-17 16:32:37.937500
1604,-232.66,2021-12-17 16:32:37.953125
1605,-189.34,2021-12-17 16:32:37.968750
1606,-126.33,2021-12-17 16:32:37.984375
1607,-45.79,2021-12-17 16:32:38.000000
1608,47.28,2021-12-17 16:32:38.015625
1609,145.46,2021-12-17 16:32:38.031250
1610,240.34,2021-12-17 16:32:38.046875
1611,324.48,2021-12-17 16:32:38.062500
1612,393.17,2021-12-17 16:32:38.078125
1613,445.19,2021-12-17 16:32:38.093750
1614,481.73,2021-12-17 16:32:38.109375
1615,504.28,2021-12-17 16:32:38.125000
1616,512.66,2021-12-17 16:32:38.140625
1617,504.62,2021-12-17 16:32:38.156250
1618,477.09,2021-12-17 16:32:38.171875
1619,428.68,2021-12-17 16:32:38.187500
1620,361.95,2021-12-17 16:32:38.203125
1621,283.78,2021-12-17 16:32:38.218750
1622,203.58,2021-12-17 16:32:38.234375
1623,129.78,2021-12-17 16:32:38.250000
1624,66.78,2021-12-17 16:32:38.265625
1625,14.14,2021-12-17 16:32:38.281250
1626,-32.06,2021-12-17 16:32:38.296875
1627,-76.06,2021-12-17 16:32:38.312500
1628,-120.23,2021-12-17 16:32:38.328125
1629,-164.34,2021-12-17 16:32:38.343750
1630,-206.27,2021-12-17 16:32:38.359375
1631,-243.43,2021-12-17 16:32:38.375000
1632,-273.41,2021-12-17 16:32:38.390625
1633,-294.2,2021-12-17 16:32:38.406250
1634,-303.97,2021-12-17 16:32:38.421875
1635,-301.93,2021-12-17 16:32:38.437500
1636,-288.82,2021-12-17 16:32:38.453125
1637,-268.14,2021-12-17 16:32:38.468750
1638,-245.8,2021-12-17 16:32:38.484375
1639,-228.26,2021-12-17 16:32:38.500000
1640,-220.23,2021-12-17 16:32:38.515625
1641,-222.94,2021-12-17 16:32:38.531250
1642,-234.33,2021-12-17 16:32:38.546875
1643,-250.29,2021-12-17 16:32:38.562500
1644,-266.49,2021-12-17 16:32:38.578125
1645,-279.61,2021-12-17 16:32:38.593750
1646,-287.95,2021-12-17 16:32:38.609375
1647,-291.45,2021-12-17 16:32:38.625000
1648,-291.44,2021-12-17 16:32:38.640625
1649,-289.84,2021-12-17 16:32:38.656250
1650,-288.17,2021-12-17 16:32:38.671875
1651,-286.27,2021-12-17 16:32:38.687500
1652,-281.63,2021-12-17 16:32:38.703125
1653,-269.91,2021-12-17 16:32:38.718750
1654,-246.57,2021-12-17 16:32:38.734375
1655,-209.32,2021-12-17 16:32:38.750000
1656,-159.57,2021-12-17 16:32:38.765625
1657,-101.93,2021-12-17 16:32:38.781250
1658,-42.92,2021-12-17 16:32:38.796875
1659,11.43,2021-12-17 16:32:38.812500
1660,56.98,2021-12-17 16:32:38.828125
1661,91.58,2021-12-17 16:32:38.843750
1662,114.42,2021-12-17 16:32:38.859375
1663,125.26,2021-12-17 16:32:38.875000
1664,124.88,2021-12-17 16:32:38.890625
1665,115.92,2021-12-17 16:32:38.906250
1666,103.44,2021-12-17 16:32:38.921875
1667,93.51,2021-12-17 16:32:38.937500
1668,91.49,2021-12-17 16:32:38.953125
1669,99.57,2021-12-17 16:32:38.968750
1670,115.56,2021-12-17 16:32:38.984375
1671,133.47,2021-12-17 16:32:39.000000
1672,145.24,2021-12-17 16:32:39.015625
1673,143.95,2021-12-17 16:32:39.031250
1674,126.21,2021-12-17 16:32:39.046875
1675,93.51,2021-12-17 16:32:39.062500
1676,51.82,2021-12-17 16:32:39.078125
1677,9.87,2021-12-17 16:32:39.093750
1678,-23.0,2021-12-17 16:32:39.109375
1679,-39.3,2021-12-17 16:32:39.125000
1680,-35.13,2021-12-17 16:32:39.140625
1681,-11.25,2021-12-17 16:32:39.156250
1682,27.08,2021-12-17 16:32:39.171875
1683,71.51,2021-12-17 16:32:39.187500
1684,112.96,2021-12-17 16:32:39.203125
1685,144.58,2021-12-17 16:32:39.218750
1686,163.47,2021-12-17 16:32:39.234375
1687,170.68,2021-12-17 16:32:39.250000
1688,169.32,2021-12-17 16:32:39.265625
1689,162.21,2021-12-17 16:32:39.281250
1690,150.17,2021-12-17 16:32:39.296875
1691,132.11,2021-12-17 16:32:39.312500
1692,106.79,2021-12-17 16:32:39.328125
1693,74.96,2021-12-17 16:32:39.343750
1694,40.75,2021-12-17 16:32:39.359375
1695,10.74,2021-12-17 16:32:39.375000
1696,-8.44,2021-12-17 16:32:39.390625
1697,-12.96,2021-12-17 16:32:39.406250
1698,-3.36,2021-12-17 16:32:39.421875
1699,15.94,2021-12-17 16:32:39.437500
1700,38.59,2021-12-17 16:32:39.453125
1701,58.61,2021-12-17 16:32:39.468750
1702,71.89,2021-12-17 16:32:39.484375
1703,76.56,2021-12-17 16:32:39.500000
1704,72.14,2021-12-17 16:32:39.515625
1705,58.74,2021-12-17 16:32:39.531250
1706,36.67,2021-12-17 16:32:39.546875
1707,6.91,2021-12-17 16:32:39.562500
1708,-28.58,2021-12-17 16:32:39.578125
1709,-67.07,2021-12-17 16:32:39.593750
1710,-105.1,2021-12-17 16:32:39.609375
1711,-139.36,2021-12-17 16:32:39.625000
1712,-166.86,2021-12-17 16:32:39.640625
1713,-185.3,2021-12-17 16:32:39.656250
1714,-193.56,2021-12-17 16:32:39.671875
1715,-192.41,2021-12-17 16:32:39.687500
1716,-184.83,2021-12-17 16:32:39.703125
1717,-175.49,2021-12-17 16:32:39.718750
1718,-169.0,2021-12-17 16:32:39.734375
1719,-167.4,2021-12-17 16:32:39.750000
1720,-168.73,2021-12-17 16:32:39.765625
1721,-167.0,2021-12-17 16:32:39.781250
1722,-154.64,2021-12-17 16:32:39.796875
1723,-125.68,2021-12-17 16:32:39.812500
1724,-78.77,2021-12-17 16:32:39.828125
1725,-18.0,2021-12-17 16:32:39.843750
1726,48.13,2021-12-17 16:32:39.859375
1727,109.12,2021-12-17 16:32:39.875000
1728,155.38,2021-12-17 16:32:39.890625
1729,180.64,2021-12-17 16:32:39.906250
1730,183.7,2021-12-17 16:32:39.921875
1731,168.87,2021-12-17 16:32:39.937500
1732,144.81,2021-12-17 16:32:39.953125
1733,121.44,2021-12-17 16:32:39.968750
1734,106.08,2021-12-17 16:32:39.984375
1735,100.7,2021-12-17 16:32:40.000000
1736,101.4,2021-12-17 16:32:40.015625
1737,101.12,2021-12-17 16:32:40.031250
1738,93.45,2021-12-17 16:32:40.046875
1739,75.92,2021-12-17 16:32:40.062500
1740,50.39,2021-12-17 16:32:40.078125
1741,20.92,2021-12-17 16:32:40.093750
1742,-9.2,2021-12-17 16:32:40.109375
1743,-39.2,2021-12-17 16:32:40.125000
1744,-69.96,2021-12-17 16:32:40.140625
1745,-101.96,2021-12-17 16:32:40.156250
1746,-133.26,2021-12-17 16:32:40.171875
1747,-159.24,2021-12-17 16:32:40.187500
1748,-174.23,2021-12-17 16:32:40.203125
1749,-174.28,2021-12-17 16:32:40.218750
1750,-159.37,2021-12-17 16:32:40.234375
1751,-133.91,2021-12-17 16:32:40.250000
1752,-105.45,2021-12-17 16:32:40.265625
1753,-81.33,2021-12-17 16:32:40.281250
1754,-65.81,2021-12-17 16:32:40.296875
1755,-58.22,2021-12-17 16:32:40.312500
1756,-53.3,2021-12-17 16:32:40.328125
1757,-43.89,2021-12-17 16:32:40.343750
1758,-24.36,2021-12-17 16:32:40.359375
1759,7.08,2021-12-17 16:32:40.375000
1760,48.15,2021-12-17 16:32:40.390625
1761,94.25,2021-12-17 16:32:40.406250
1762,141.58,2021-12-17 16:32:40.421875
1763,188.82,2021-12-17 16:32:40.437500
1764,236.27,2021-12-17 16:32:40.453125
1765,283.94,2021-12-17 16:32:40.468750
1766,329.82,2021-12-17 16:32:40.484375
1767,369.87,2021-12-17 16:32:40.500000
1768,399.36,2021-12-17 16:32:40.515625
1769,414.63,2021-12-17 16:32:40.531250
1770,414.01,2021-12-17 16:32:40.546875
1771,398.0,2021-12-17 16:32:40.562500
1772,368.41,2021-12-17 16:32:40.578125
1773,326.96,2021-12-17 16:32:40.593750
1774,275.13,2021-12-17 16:32:40.609375
1775,214.52,2021-12-17 16:32:40.625000
1776,147.81,2021-12-17 16:32:40.640625
1777,78.54,2021-12-17 16:32:40.656250
1778,10.49,2021-12-17 16:32:40.671875
1779,-52.69,2021-12-17 16:32:40.687500
1780,-106.54,2021-12-17 16:32:40.703125
1781,-145.27,2021-12-17 16:32:40.718750
1782,-163.12,2021-12-17 16:32:40.734375
1783,-155.97,2021-12-17 16:32:40.750000
1784,-123.45,2021-12-17 16:32:40.765625
1785,-70.05,2021-12-17 16:32:40.781250
1786,-5.37,2021-12-17 16:32:40.796875
1787,57.5,2021-12-17 16:32:40.812500
1788,105.33,2021-12-17 16:32:40.828125
1789,129.39,2021-12-17 16:32:40.843750
1790,128.07,2021-12-17 16:32:40.859375
1791,105.09,2021-12-17 16:32:40.875000
1792,66.71,2021-12-17 16:32:40.890625
1793,18.66,2021-12-17 16:32:40.906250
1794,-35.37,2021-12-17 16:32:40.921875
1795,-94.13,2021-12-17 16:32:40.937500
1796,-157.57,2021-12-17 16:32:40.953125
1797,-225.8,2021-12-17 16:32:40.968750
1798,-296.71,2021-12-17 16:32:40.984375
1799,-358.93,2021-12-17 16:32:41.000000
1800,-396.64,2021-12-17 16:32:41.015625
1801,-399.44,2021-12-17 16:32:41.031250
1802,-371.07,2021-12-17 16:32:41.046875
1803,-326.32,2021-12-17 16:32:41.062500
1804,-280.71,2021-12-17 16:32:41.078125
1805,-242.7,2021-12-17 16:32:41.093750
1806,-213.63,2021-12-17 16:32:41.109375
1807,-189.47,2021-12-17 16:32:41.125000
1808,-164.05,2021-12-17 16:32:41.140625
1809,-133.63,2021-12-17 16:32:41.156250
1810,-98.16,2021-12-17 16:32:41.171875
1811,-60.54,2021-12-17 16:32:41.187500
1812,-23.89,2021-12-17 16:32:41.203125
1813,9.86,2021-12-17 16:32:41.218750
1814,41.18,2021-12-17 16:32:41.234375
1815,70.43,2021-12-17 16:32:41.250000
1816,97.06,2021-12-17 16:32:41.265625
1817,119.84,2021-12-17 16:32:41.281250
1818,136.79,2021-12-17 16:32:41.296875
1819,146.43,2021-12-17 16:32:41.312500
1820,149.28,2021-12-17 16:32:41.328125
1821,148.75,2021-12-17 16:32:41.343750
1822,145.16,2021-12-17 16:32:41.359375
1823,143.57,2021-12-17 16:32:41.375000
1824,144.73,2021-12-17 16:32:41.390625
1825,145.42,2021-12-17 16:32:41.406250
1826,141.35,2021-12-17 16:32:41.421875
1827,129.8,2021-12-17 16:32:41.437500
1828,111.2,2021-12-17 16:32:41.453125
1829,88.45,2021-12-17 16:32:41.468750
1830,65.32,2021-12-17 16:32:41.484375
1831,44.47,2021-12-17 16:32:41.500000
1832,27.11,2021-12-17 16:32:41.515625
1833,11.73,2021-12-17 16:32:41.531250
1834,-3.31,2021-12-17 16:32:41.546875
1835,-18.47,2021-12-17 16:32:41.562500
1836,-33.27,2021-12-17 16:32:41.578125
1837,-46.74,2021-12-17 16:32:41.593750
1838,-58.36,2021-12-17 16:32:41.609375
1839,-68.24,2021-12-17 16:32:41.625000
1840,-77.38,2021-12-17 16:32:41.640625
1841,-85.7,2021-12-17 16:32:41.656250
1842,-93.14,2021-12-17 16:32:41.671875
1843,-98.81,2021-12-17 16:32:41.687500
1844,-100.79,2021-12-17 16:32:41.703125
1845,-96.41,2021-12-17 16:32:41.718750
1846,-82.83,2021-12-17 16:32:41.734375
1847,-58.87,2021-12-17 16:32:41.750000
1848,-26.81,2021-12-17 16:32:41.765625
1849,7.46,2021-12-17 16:32:41.781250
1850,36.03,2021-12-17 16:32:41.796875
1851,50.81,2021-12-17 16:32:41.812500
1852,47.1,2021-12-17 16:32:41.828125
1853,24.74,2021-12-17 16:32:41.843750
1854,-11.45,2021-12-17 16:32:41.859375
1855,-53.14,2021-12-17 16:32:41.875000
1856,-91.71,2021-12-17 16:32:41.890625
1857,-120.87,2021-12-17 16:32:41.906250
1858,-137.86,2021-12-17 16:32:41.921875
1859,-142.9,2021-12-17 16:32:41.937500
1860,-138.43,2021-12-17 16:32:41.953125
1861,-127.55,2021-12-17 16:32:41.968750
1862,-114.06,2021-12-17 16:32:41.984375
1863,-100.66,2021-12-17 16:32:42.000000
1864,-87.96,2021-12-17 16:32:42.015625
1865,-71.88,2021-12-17 16:32:42.031250
1866,-48.0,2021-12-17 16:32:42.046875
1867,-10.96,2021-12-17 16:32:42.062500
1868,44.37,2021-12-17 16:32:42.078125
1869,120.69,2021-12-17 16:32:42.093750
1870,216.47,2021-12-17 16:32:42.109375
1871,323.88,2021-12-17 16:32:42.125000
1872,421.9,2021-12-17 16:32:42.140625
1873,483.93,2021-12-17 16:32:42.156250
1874,491.44,2021-12-17 16:32:42.171875
1875,444.59,2021-12-17 16:32:42.187500
1876,360.19,2021-12-17 16:32:42.203125
1877,260.73,2021-12-17 16:32:42.218750
1878,165.03,2021-12-17 16:32:42.234375
1879,88.83,2021-12-17 16:32:42.250000
1880,30.24,2021-12-17 16:32:42.265625
1881,-14.24,2021-12-17 16:32:42.281250
1882,-47.4,2021-12-17 16:32:42.296875
1883,-72.0,2021-12-17 16:32:42.312500
1884,-92.14,2021-12-17 16:32:42.328125
1885,-113.7,2021-12-17 16:32:42.343750
1886,-139.84,2021-12-17 16:32:42.359375
1887,-171.85,2021-12-17 16:32:42.375000
1888,-206.84,2021-12-17 16:32:42.390625
1889,-238.74,2021-12-17 16:32:42.406250
1890,-258.58,2021-12-17 16:32:42.421875
1891,-258.22,2021-12-17 16:32:42.437500
1892,-233.41,2021-12-17 16:32:42.453125
1893,-185.8,2021-12-17 16:32:42.468750
1894,-122.66,2021-12-17 16:32:42.484375
1895,-54.32,2021-12-17 16:32:42.500000
1896,9.11,2021-12-17 16:32:42.515625
1897,60.9,2021-12-17 16:32:42.531250
1898,98.29,2021-12-17 16:32:42.546875
1899,123.39,2021-12-17 16:32:42.562500
1900,140.93,2021-12-17 16:32:42.578125
1901,156.08,2021-12-17 16:32:42.593750
1902,172.58,2021-12-17 16:32:42.609375
1903,191.77,2021-12-17 16:32:42.625000
1904,212.77,2021-12-17 16:32:42.640625
1905,233.23,2021-12-17 16:32:42.656250
1906,250.69,2021-12-17 16:32:42.671875
1907,262.95,2021-12-17 16:32:42.687500
1908,269.43,2021-12-17 16:32:42.703125
1909,270.57,2021-12-17 16:32:42.718750
1910,267.69,2021-12-17 16:32:42.734375
1911,262.62,2021-12-17 16:32:42.750000
1912,257.09,2021-12-17 16:32:42.765625
1913,252.31,2021-12-17 16:32:42.781250
1914,248.45,2021-12-17 16:32:42.796875
1915,244.57,2021-12-17 16:32:42.812500
1916,238.73,2021-12-17 16:32:42.828125
1917,228.86,2021-12-17 16:32:42.843750
1918,213.41,2021-12-17 16:32:42.859375
1919,192.08,2021-12-17 16:32:42.875000
1920,166.01,2021-12-17 16:32:42.890625
1921,137.37,2021-12-17 16:32:42.906250
1922,108.45,2021-12-17 16:32:42.921875
1923,80.62,2021-12-17 16:32:42.937500
1924,54.16,2021-12-17 16:32:42.953125
1925,28.61,2021-12-17 16:32:42.968750
1926,3.7,2021-12-17 16:32:42.984375
1927,-20.22,2021-12-17 16:32:43.000000
1928,-41.87,2021-12-17 16:32:43.015625
1929,-59.54,2021-12-17 16:32:43.031250
1930,-71.73,2021-12-17 16:32:43.046875
1931,-77.78,2021-12-17 16:32:43.062500
1932,-78.15,2021-12-17 16:32:43.078125
1933,-74.12,2021-12-17 16:32:43.093750
1934,-67.25,2021-12-17 16:32:43.109375
1935,-58.95,2021-12-17 16:32:43.125000
1936,-50.25,2021-12-17 16:32:43.140625
1937,-41.8,2021-12-17 16:32:43.156250
1938,-33.87,2021-12-17 16:32:43.171875
1939,-26.48,2021-12-17 16:32:43.187500
1940,-19.51,2021-12-17 16:32:43.203125
1941,-12.86,2021-12-17 16:32:43.218750
1942,-6.51,2021-12-17 16:32:43.234375
1943,-0.52,2021-12-17 16:32:43.250000
1944,4.81,2021-12-17 16:32:43.265625
1945,8.99,2021-12-17 16:32:43.281250
1946,11.01,2021-12-17 16:32:43.296875
1947,9.2,2021-12-17 16:32:43.312500
1948,1.63,2021-12-17 16:32:43.328125
1949,-12.71,2021-12-17 16:32:43.343750
1950,-32.38,2021-12-17 16:32:43.359375
1951,-53.0,2021-12-17 16:32:43.375000
1952,-68.35,2021-12-17 16:32:43.390625
1953,-72.85,2021-12-17 16:32:43.406250
1954,-64.14,2021-12-17 16:32:43.421875
1955,-44.03,2021-12-17 16:32:43.437500
1956,-17.33,2021-12-17 16:32:43.453125
1957,10.69,2021-12-17 16:32:43.468750
1958,36.55,2021-12-17 16:32:43.484375
1959,59.2,2021-12-17 16:32:43.500000
1960,78.76,2021-12-17 16:32:43.515625
1961,94.9,2021-12-17 16:32:43.531250
1962,105.97,2021-12-17 16:32:43.546875
1963,109.65,2021-12-17 16:32:43.562500
1964,104.4,2021-12-17 16:32:43.578125
1965,90.66,2021-12-17 16:32:43.593750
1966,70.6,2021-12-17 16:32:43.609375
1967,47.01,2021-12-17 16:32:43.625000
1968,21.83,2021-12-17 16:32:43.640625
1969,-4.31,2021-12-17 16:32:43.656250
1970,-31.61,2021-12-17 16:32:43.671875
1971,-60.05,2021-12-17 16:32:43.687500
1972,-89.02,2021-12-17 16:32:43.703125
1973,-117.49,2021-12-17 16:32:43.718750
1974,-144.51,2021-12-17 16:32:43.734375
1975,-169.46,2021-12-17 16:32:43.750000
1976,-191.93,2021-12-17 16:32:43.765625
1977,-211.4,2021-12-17 16:32:43.781250
1978,-227.08,2021-12-17 16:32:43.796875
1979,-238.21,2021-12-17 16:32:43.812500
1980,-244.42,2021-12-17 16:32:43.828125
1981,-246.22,2021-12-17 16:32:43.843750
1982,-245.09,2021-12-17 16:32:43.859375
1983,-243.21,2021-12-17 16:32:43.875000
1984,-242.93,2021-12-17 16:32:43.890625
1985,-246.08,2021-12-17 16:32:43.906250
1986,-253.55,2021-12-17 16:32:43.921875
1987,-265.41,2021-12-17 16:32:43.937500
1988,-281.17,2021-12-17 16:32:43.953125
1989,-300.25,2021-12-17 16:32:43.968750
1990,-322.55,2021-12-17 16:32:43.984375
1991,-348.34,2021-12-17 16:32:44.000000
1992,-378.17,2021-12-17 16:32:44.015625
1993,-412.72,2021-12-17 16:32:44.031250
1994,-452.79,2021-12-17 16:32:44.046875
1995,-499.0,2021-12-17 16:32:44.062500
1996,-551.21,2021-12-17 16:32:44.078125
1997,-607.39,2021-12-17 16:32:44.093750
1998,-662.72,2021-12-17 16:32:44.109375
1999,-709.74,2021-12-17 16:32:44.125000
2000,-739.78,2021-12-17 16:32:44.140625
2001,-745.78,2021-12-17 16:32:44.156250
2002,-724.88,2021-12-17 16:32:44.171875
2003,-679.56,2021-12-17 16:32:44.187500
2004,-616.62,2021-12-17 16:32:44.203125
2005,-544.6,2021-12-17 16:32:44.218750
2006,-470.66,2021-12-17 16:32:44.234375
2007,-398.95,2021-12-17 16:32:44.250000
2008,-330.78,2021-12-17 16:32:44.265625
2009,-266.02,2021-12-17 16:32:44.281250
2010,-204.92,2021-12-17 16:32:44.296875
2011,-148.78,2021-12-17 16:32:44.312500
2012,-99.5,2021-12-17 16:32:44.328125
2013,-58.62,2021-12-17 16:32:44.343750
2014,-26.61,2021-12-17 16:32:44.359375
2015,-2.75,2021-12-17 16:32:44.375000
2016,14.12,2021-12-17 16:32:44.390625
2017,24.83,2021-12-17 16:32:44.406250
2018,29.58,2021-12-17 16:32:44.421875
2019,28.11,2021-12-17 16:32:44.437500
2020,20.31,2021-12-17 16:32:44.453125
2021,6.9,2021-12-17 16:32:44.468750
2022,-10.37,2021-12-17 16:32:44.484375
2023,-29.05,2021-12-17 16:32:44.500000
2024,-46.46,2021-12-17 16:32:44.515625
2025,-60.55,2021-12-17 16:32:44.531250
2026,-70.39,2021-12-17 16:32:44.546875
2027,-76.22,2021-12-17 16:32:44.562500
2028,-79.19,2021-12-17 16:32:44.578125
2029,-80.68,2021-12-17 16:32:44.593750
2030,-81.66,2021-12-17 16:32:44.609375
2031,-82.46,2021-12-17 16:32:44.625000
2032,-82.68,2021-12-17 16:32:44.640625
2033,-81.52,2021-12-17 16:32:44.656250
2034,-78.29,2021-12-17 16:32:44.671875
2035,-72.72,2021-12-17 16:32:44.687500
2036,-65.09,2021-12-17 16:32:44.703125
2037,-56.19,2021-12-17 16:32:44.718750
2038,-46.97,2021-12-17 16:32:44.734375
2039,-38.25,2021-12-17 16:32:44.750000
2040,-30.5,2021-12-17 16:32:44.765625
2041,-23.7,2021-12-17 16:32:44.781250
2042,-17.52,2021-12-17 16:32:44.796875
2043,-11.44,2021-12-17 16:32:44.812500
2044,-4.95,2021-12-17 16:32:44.828125
2045,2.32,2021-12-17 16:32:44.843750
2046,10.47,2021-12-17 16:32:44.859375
2047,19.43,2021-12-17 16:32:44.875000
2048,29.06,2021-12-17 16:32:44.890625
2049,39.24,2021-12-17 16:32:44.906250
2050,49.97,2021-12-17 16:32:44.921875
2051,61.3,2021-12-17 16:32:44.937500
2052,73.32,2021-12-17 16:32:44.953125
2053,86.05,2021-12-17 16:32:44.968750
2054,99.26,2021-12-17 16:32:44.984375
2055,112.5,2021-12-17 16:32:45.000000
2056,125.13,2021-12-17 16:32:45.015625
2057,136.53,2021-12-17 16:32:45.031250
2058,146.27,2021-12-17 16:32:45.046875
2059,154.4,2021-12-17 16:32:45.062500
2060,161.49,2021-12-17 16:32:45.078125
2061,168.47,2021-12-17 16:32:45.093750
2062,176.41,2021-12-17 16:32:45.109375
2063,186.09,2021-12-17 16:32:45.125000
2064,197.78,2021-12-17 16:32:45.140625
2065,211.24,2021-12-17 16:32:45.156250
2066,225.86,2021-12-17 16:32:45.171875
2067,241.03,2021-12-17 16:32:45.187500
2068,256.37,2021-12-17 16:32:45.203125
2069,271.97,2021-12-17 16:32:45.218750
2070,288.24,2021-12-17 16:32:45.234375
2071,305.85,2021-12-17 16:32:45.250000
2072,325.48,2021-12-17 16:32:45.265625
2073,347.71,2021-12-17 16:32:45.281250
2074,372.75,2021-12-17 16:32:45.296875
2075,400.02,2021-12-17 16:32:45.312500
2076,427.85,2021-12-17 16:32:45.328125
2077,453.53,2021-12-17 16:32:45.343750
2078,473.8,2021-12-17 16:32:45.359375
2079,485.84,2021-12-17 16:32:45.375000
2080,488.41,2021-12-17 16:32:45.390625
2081,482.32,2021-12-17 16:32:45.406250
2082,470.16,2021-12-17 16:32:45.421875
2083,455.12,2021-12-17 16:32:45.437500
2084,439.66,2021-12-17 16:32:45.453125
2085,424.51,2021-12-17 16:32:45.468750
2086,408.69,2021-12-17 16:32:45.484375
2087,390.36,2021-12-17 16:32:45.500000
2088,367.94,2021-12-17 16:32:45.515625
2089,341.08,2021-12-17 16:32:45.531250
2090,310.79,2021-12-17 16:32:45.546875
2091,279.03,2021-12-17 16:32:45.562500
2092,248.0,2021-12-17 16:32:45.578125
2093,219.5,2021-12-17 16:32:45.593750
2094,194.74,2021-12-17 16:32:45.609375
2095,174.28,2021-12-17 16:32:45.625000
2096,158.11,2021-12-17 16:32:45.640625
2097,145.69,2021-12-17 16:32:45.656250
2098,136.05,2021-12-17 16:32:45.671875
2099,127.89,2021-12-17 16:32:45.687500
2100,119.78,2021-12-17 16:32:45.703125
2101,110.56,2021-12-17 16:32:45.718750
2102,99.6,2021-12-17 16:32:45.734375
2103,87.15,2021-12-17 16:32:45.750000
2104,74.24,2021-12-17 16:32:45.765625
2105,62.38,2021-12-17 16:32:45.781250
2106,53.09,2021-12-17 16:32:45.796875
2107,47.26,2021-12-17 16:32:45.812500
2108,44.8,2021-12-17 16:32:45.828125
2109,44.56,2021-12-17 16:32:45.843750
2110,44.76,2021-12-17 16:32:45.859375
2111,43.53,2021-12-17 16:32:45.875000
2112,39.55,2021-12-17 16:32:45.890625
2113,32.18,2021-12-17 16:32:45.906250
2114,21.48,2021-12-17 16:32:45.921875
2115,7.73,2021-12-17 16:32:45.937500
2116,-8.82,2021-12-17 16:32:45.953125
2117,-28.08,2021-12-17 16:32:45.968750
2118,-49.7,2021-12-17 16:32:45.984375
2119,-72.82,2021-12-17 16:32:46.000000
2120,-95.89,2021-12-17 16:32:46.015625
2121,-117.08,2021-12-17 16:32:46.031250
2122,-134.84,2021-12-17 16:32:46.046875
2123,-148.23,2021-12-17 16:32:46.062500
2124,-156.94,2021-12-17 16:32:46.078125
2125,-161.03,2021-12-17 16:32:46.093750
2126,-160.58,2021-12-17 16:32:46.109375
2127,-155.64,2021-12-17 16:32:46.125000
2128,-146.51,2021-12-17 16:32:46.140625
2129,-134.07,2021-12-17 16:32:46.156250
2130,-119.67,2021-12-17 16:32:46.171875
2131,-104.7,2021-12-17 16:32:46.187500
2132,-89.91,2021-12-17 16:32:46.203125
2133,-75.28,2021-12-17 16:32:46.218750
2134,-60.43,2021-12-17 16:32:46.234375
2135,-45.53,2021-12-17 16:32:46.250000
2136,-31.93,2021-12-17 16:32:46.265625
2137,-22.07,2021-12-17 16:32:46.281250
2138,-18.49,2021-12-17 16:32:46.296875
2139,-22.45,2021-12-17 16:32:46.312500
2140,-33.06,2021-12-17 16:32:46.328125
2141,-47.11,2021-12-17 16:32:46.343750
2142,-59.95,2021-12-17 16:32:46.359375
2143,-66.82,2021-12-17 16:32:46.375000
2144,-64.06,2021-12-17 16:32:46.390625
2145,-50.03,2021-12-17 16:32:46.406250
2146,-25.33,2021-12-17 16:32:46.421875
2147,7.56,2021-12-17 16:32:46.437500
2148,44.77,2021-12-17 16:32:46.453125
2149,81.86,2021-12-17 16:32:46.468750
2150,114.51,2021-12-17 16:32:46.484375
2151,139.04,2021-12-17 16:32:46.500000
2152,152.95,2021-12-17 16:32:46.515625
2153,155.17,2021-12-17 16:32:46.531250
2154,146.21,2021-12-17 16:32:46.546875
2155,128.03,2021-12-17 16:32:46.562500
2156,103.78,2021-12-17 16:32:46.578125
2157,77.3,2021-12-17 16:32:46.593750
2158,52.14,2021-12-17 16:32:46.609375
2159,30.94,2021-12-17 16:32:46.625000
2160,14.81,2021-12-17 16:32:46.640625
2161,3.36,2021-12-17 16:32:46.656250
2162,-4.86,2021-12-17 16:32:46.671875
2163,-11.69,2021-12-17 16:32:46.687500
2164,-18.75,2021-12-17 16:32:46.703125
2165,-27.09,2021-12-17 16:32:46.718750
2166,-36.89,2021-12-17 16:32:46.734375
2167,-47.56,2021-12-17 16:32:46.750000
2168,-57.89,2021-12-17 16:32:46.765625
2169,-66.49,2021-12-17 16:32:46.781250
2170,-72.24,2021-12-17 16:32:46.796875
2171,-74.75,2021-12-17 16:32:46.812500
2172,-74.39,2021-12-17 16:32:46.828125
2173,-72.1,2021-12-17 16:32:46.843750
2174,-68.97,2021-12-17 16:32:46.859375
2175,-65.79,2021-12-17 16:32:46.875000
2176,-62.9,2021-12-17 16:32:46.890625
2177,-60.22,2021-12-17 16:32:46.906250
2178,-57.46,2021-12-17 16:32:46.921875
2179,-54.27,2021-12-17 16:32:46.937500
2180,-50.32,2021-12-17 16:32:46.953125
2181,-45.15,2021-12-17 16:32:46.968750
2182,-38.13,2021-12-17 16:32:46.984375
2183,-28.55,2021-12-17 16:32:47.000000
2184,-15.81,2021-12-17 16:32:47.015625
2185,0.2,2021-12-17 16:32:47.031250
2186,18.91,2021-12-17 16:32:47.046875
2187,39.3,2021-12-17 16:32:47.062500
2188,60.1,2021-12-17 16:32:47.078125
2189,80.35,2021-12-17 16:32:47.093750
2190,99.57,2021-12-17 16:32:47.109375
2191,117.78,2021-12-17 16:32:47.125000
2192,135.08,2021-12-17 16:32:47.140625
2193,151.42,2021-12-17 16:32:47.156250
2194,166.28,2021-12-17 16:32:47.171875
2195,178.84,2021-12-17 16:32:47.187500
2196,188.28,2021-12-17 16:32:47.203125
2197,194.0,2021-12-17 16:32:47.218750
2198,195.72,2021-12-17 16:32:47.234375
2199,193.42,2021-12-17 16:32:47.250000
2200,187.15,2021-12-17 16:32:47.265625
2201,176.97,2021-12-17 16:32:47.281250
2202,163.17,2021-12-17 16:32:47.296875
2203,146.27,2021-12-17 16:32:47.312500
2204,126.98,2021-12-17 16:32:47.328125
2205,106.02,2021-12-17 16:32:47.343750
2206,83.86,2021-12-17 16:32:47.359375
2207,60.59,2021-12-17 16:32:47.375000
2208,36.23,2021-12-17 16:32:47.390625
2209,10.93,2021-12-17 16:32:47.406250
2210,-14.85,2021-12-17 16:32:47.421875
2211,-40.33,2021-12-17 16:32:47.437500
2212,-64.8,2021-12-17 16:32:47.453125
2213,-87.97,2021-12-17 16:32:47.468750
2214,-110.03,2021-12-17 16:32:47.484375
2215,-131.64,2021-12-17 16:32:47.500000
2216,-153.43,2021-12-17 16:32:47.515625
2217,-175.92,2021-12-17 16:32:47.531250
2218,-199.17,2021-12-17 16:32:47.546875
2219,-222.7,2021-12-17 16:32:47.562500
2220,-245.29,2021-12-17 16:32:47.578125
2221,-264.93,2021-12-17 16:32:47.593750
2222,-279.08,2021-12-17 16:32:47.609375
2223,-285.13,2021-12-17 16:32:47.625000
2224,-281.32,2021-12-17 16:32:47.640625
2225,-267.26,2021-12-17 16:32:47.656250
2226,-244.34,2021-12-17 16:32:47.671875
2227,-215.23,2021-12-17 16:32:47.687500
2228,-183.25,2021-12-17 16:32:47.703125
2229,-151.37,2021-12-17 16:32:47.718750
2230,-121.75,2021-12-17 16:32:47.734375
2231,-95.7,2021-12-17 16:32:47.750000
2232,-73.8,2021-12-17 16:32:47.765625
2233,-56.32,2021-12-17 16:32:47.781250
2234,-43.24,2021-12-17 16:32:47.796875
2235,-34.18,2021-12-17 16:32:47.812500
2236,-28.29,2021-12-17 16:32:47.828125
2237,-24.27,2021-12-17 16:32:47.843750
2238,-20.62,2021-12-17 16:32:47.859375
2239,-16.0,2021-12-17 16:32:47.875000
2240,-9.81,2021-12-17 16:32:47.890625
2241,-2.26,2021-12-17 16:32:47.906250
2242,5.5,2021-12-17 16:32:47.921875
2243,11.99,2021-12-17 16:32:47.937500
2244,16.03,2021-12-17 16:32:47.953125
2245,17.28,2021-12-17 16:32:47.968750
2246,16.39,2021-12-17 16:32:47.984375
2247,14.65,2021-12-17 16:32:48.000000
2248,13.41,2021-12-17 16:32:48.015625
2249,13.36,2021-12-17 16:32:48.031250
2250,14.42,2021-12-17 16:32:48.046875
2251,15.88,2021-12-17 16:32:48.062500
2252,16.97,2021-12-17 16:32:48.078125
2253,17.36,2021-12-17 16:32:48.093750
2254,17.28,2021-12-17 16:32:48.109375
2255,17.41,2021-12-17 16:32:48.125000
2256,18.31,2021-12-17 16:32:48.140625
2257,20.19,2021-12-17 16:32:48.156250
2258,22.75,2021-12-17 16:32:48.171875
2259,25.38,2021-12-17 16:32:48.187500
2260,27.52,2021-12-17 16:32:48.203125
2261,28.84,2021-12-17 16:32:48.218750
2262,29.35,2021-12-17 16:32:48.234375
2263,29.25,2021-12-17 16:32:48.250000
2264,28.7,2021-12-17 16:32:48.265625
2265,27.74,2021-12-17 16:32:48.281250
2266,26.31,2021-12-17 16:32:48.296875
2267,24.36,2021-12-17 16:32:48.312500
2268,21.98,2021-12-17 16:32:48.328125
2269,19.45,2021-12-17 16:32:48.343750
2270,17.01,2021-12-17 16:32:48.359375
2271,14.89,2021-12-17 16:32:48.375000
2272,13.01,2021-12-17 16:32:48.390625
2273,11.21,2021-12-17 16:32:48.406250
2274,9.3,2021-12-17 16:32:48.421875
2275,7.2,2021-12-17 16:32:48.437500
2276,4.96,2021-12-17 16:32:48.453125
2277,2.65,2021-12-17 16:32:48.468750
2278,0.35,2021-12-17 16:32:48.484375
2279,-2.04,2021-12-17 16:32:48.500000
2280,-4.59,2021-12-17 16:32:48.515625
2281,-7.29,2021-12-17 16:32:48.531250
2282,-9.92,2021-12-17 16:32:48.546875
2283,-12.08,2021-12-17 16:32:48.562500
2284,-13.35,2021-12-17 16:32:48.578125
2285,-13.51,2021-12-17 16:32:48.593750
2286,-12.57,2021-12-17 16:32:48.609375
2287,-10.85,2021-12-17 16:32:48.625000
2288,-8.87,2021-12-17 16:32:48.640625
2289,-7.17,2021-12-17 16:32:48.656250
2290,-6.13,2021-12-17 16:32:48.671875
2291,-5.91,2021-12-17 16:32:48.687500
2292,-6.38,2021-12-17 16:32:48.703125
2293,-7.2,2021-12-17 16:32:48.718750
2294,-8.06,2021-12-17 16:32:48.734375
2295,-8.68,2021-12-17 16:32:48.750000
2296,-8.99,2021-12-17 16:32:48.765625
2297,-9.04,2021-12-17 16:32:48.781250
2298,-8.92,2021-12-17 16:32:48.796875
2299,-8.59,2021-12-17 16:32:48.812500
2300,-7.95,2021-12-17 16:32:48.828125
2301,-6.94,2021-12-17 16:32:48.843750
2302,-5.57,2021-12-17 16:32:48.859375
2303,-3.95,2021-12-17 16:32:48.875000
2304,-2.16,2021-12-17 16:32:48.890625
2305,-0.04,2021-12-17 16:32:48.906250
2306,2.75,2021-12-17 16:32:48.921875
2307,6.6,2021-12-17 16:32:48.937500
2308,11.68,2021-12-17 16:32:48.953125
2309,17.69,2021-12-17 16:32:48.968750
2310,23.92,2021-12-17 16:32:48.984375
2311,29.46,2021-12-17 16:32:49.000000
2312,33.57,2021-12-17 16:32:49.015625
2313,35.83,2021-12-17 16:32:49.031250
2314,36.21,2021-12-17 16:32:49.046875
2315,34.93,2021-12-17 16:32:49.062500
2316,32.31,2021-12-17 16:32:49.078125
2317,28.67,2021-12-17 16:32:49.093750
2318,24.38,2021-12-17 16:32:49.109375
2319,19.87,2021-12-17 16:32:49.125000
2320,15.61,2021-12-17 16:32:49.140625
2321,12.01,2021-12-17 16:32:49.156250
2322,9.24,2021-12-17 16:32:49.171875
2323,7.27,2021-12-17 16:32:49.187500
2324,5.84,2021-12-17 16:32:49.203125
2325,4.61,2021-12-17 16:32:49.218750
2326,3.3,2021-12-17 16:32:49.234375
2327,1.74,2021-12-17 16:32:49.250000
2328,-0.03,2021-12-17 16:32:49.265625
2329,-1.82,2021-12-17 16:32:49.281250
2330,-3.4,2021-12-17 16:32:49.296875
2331,-4.51,2021-12-17 16:32:49.312500
2332,-4.98,2021-12-17 16:32:49.328125
2333,-4.73,2021-12-17 16:32:49.343750
2334,-3.9,2021-12-17 16:32:49.359375
2335,-2.7,2021-12-17 16:32:49.375000
2336,-1.48,2021-12-17 16:32:49.390625
2337,-0.5,2021-12-17 16:32:49.406250
2338,0.07,2021-12-17 16:32:49.421875
2339,0.18,2021-12-17 16:32:49.437500
2340,-0.09,2021-12-17 16:32:49.453125
2341,-0.56,2021-12-17 16:32:49.468750
2342,-1.11,2021-12-17 16:32:49.484375
2343,-1.7,2021-12-17 16:32:49.500000
2344,-2.28,2021-12-17 16:32:49.515625
2345,-2.87,2021-12-17 16:32:49.531250
2346,-3.38,2021-12-17 16:32:49.546875
2347,-3.68,2021-12-17 16:32:49.562500
2348,-3.66,2021-12-17 16:32:49.578125
2349,-3.26,2021-12-17 16:32:49.593750
2350,-2.53,2021-12-17 16:32:49.609375
2351,-1.63,2021-12-17 16:32:49.625000
2352,-0.8,2021-12-17 16:32:49.640625
2353,-0.18,2021-12-17 16:32:49.656250
2354,0.11,2021-12-17 16:32:49.671875
2355,0.1,2021-12-17 16:32:49.687500
2356,-0.12,2021-12-17 16:32:49.703125
2357,-0.45,2021-12-17 16:32:49.718750
2358,-0.78,2021-12-17 16:32:49.734375
2359,-1.1,2021-12-17 16:32:49.750000
2360,-1.36,2021-12-17 16:32:49.765625
2361,-1.61,2021-12-17 16:32:49.781250
2362,-1.86,2021-12-17 16:32:49.796875
2363,-2.16,2021-12-17 16:32:49.812500
2364,-2.48,2021-12-17 16:32:49.828125
2365,-2.8,2021-12-17 16:32:49.843750
2366,-2.97,2021-12-17 16:32:49.859375
2367,-2.94,2021-12-17 16:32:49.875000
2368,-2.74,2021-12-17 16:32:49.890625
2369,-2.52,2021-12-17 16:32:49.906250
2370,-2.53,2021-12-17 16:32:49.921875
2371,-2.91,2021-12-17 16:32:49.937500
2372,-3.68,2021-12-17 16:32:49.953125
2373,-4.62,2021-12-17 16:32:49.968750
2374,-5.48,2021-12-17 16:32:49.984375
2375,-6.04,2021-12-17 16:32:50.000000
2376,-6.19,2021-12-17 16:32:50.015625
2377,-6.09,2021-12-17 16:32:50.031250
2378,-5.94,2021-12-17 16:32:50.046875
2379,-5.89,2021-12-17 16:32:50.062500
2380,-5.94,2021-12-17 16:32:50.078125
2381,-5.97,2021-12-17 16:32:50.093750
2382,-5.84,2021-12-17 16:32:50.109375
2383,-5.53,2021-12-17 16:32:50.125000
2384,-5.15,2021-12-17 16:32:50.140625
2385,-4.82,2021-12-17 16:32:50.156250
2386,-4.62,2021-12-17 16:32:50.171875
2387,-4.55,2021-12-17 16:32:50.187500
2388,-4.52,2021-12-17 16:32:50.203125
2389,-4.48,2021-12-17 16:32:50.218750
2390,-4.46,2021-12-17 16:32:50.234375
2391,-4.52,2021-12-17 16:32:50.250000
2392,-4.72,2021-12-17 16:32:50.265625
2393,-4.99,2021-12-17 16:32:50.281250
2394,-5.25,2021-12-17 16:32:50.296875
2395,-5.4,2021-12-17 16:32:50.312500
2396,-5.45,2021-12-17 16:32:50.328125
2397,-5.52,2021-12-17 16:32:50.343750
2398,-5.69,2021-12-17 16:32:50.359375
2399,-6.06,2021-12-17 16:32:50.375000
2400,-6.55,2021-12-17 16:32:50.390625
2401,-7.02,2021-12-17 16:32:50.406250
2402,-7.33,2021-12-17 16:32:50.421875
2403,-7.39,2021-12-17 16:32:50.437500
2404,-7.25,2021-12-17 16:32:50.453125
2405,-7.0,2021-12-17 16:32:50.468750
2406,-6.72,2021-12-17 16:32:50.484375
2407,-6.45,2021-12-17 16:32:50.500000
2408,-6.12,2021-12-17 16:32:50.515625
2409,-5.66,2021-12-17 16:32:50.531250
2410,-4.99,2021-12-17 16:32:50.546875
2411,-4.14,2021-12-17 16:32:50.562500
2412,-3.21,2021-12-17 16:32:50.578125
2413,-2.43,2021-12-17 16:32:50.593750
2414,-2.01,2021-12-17 16:32:50.609375
2415,-2.1,2021-12-17 16:32:50.625000
2416,-2.69,2021-12-17 16:32:50.640625
2417,-3.66,2021-12-17 16:32:50.656250
2418,-4.76,2021-12-17 16:32:50.671875
2419,-5.8,2021-12-17 16:32:50.687500
2420,-6.62,2021-12-17 16:32:50.703125
2421,-7.06,2021-12-17 16:32:50.718750
2422,-7.1,2021-12-17 16:32:50.734375
2423,-6.71,2021-12-17 16:32:50.750000
2424,-5.92,2021-12-17 16:32:50.765625
2425,-4.83,2021-12-17 16:32:50.781250
2426,-3.63,2021-12-17 16:32:50.796875
2427,-2.45,2021-12-17 16:32:50.812500
2428,-1.44,2021-12-17 16:32:50.828125
2429,-0.59,2021-12-17 16:32:50.843750
2430,0.19,2021-12-17 16:32:50.859375
2431,0.98,2021-12-17 16:32:50.875000
2432,1.86,2021-12-17 16:32:50.890625
2433,2.74,2021-12-17 16:32:50.906250
2434,3.47,2021-12-17 16:32:50.921875
2435,3.94,2021-12-17 16:32:50.937500
2436,4.15,2021-12-17 16:32:50.953125
2437,4.19,2021-12-17 16:32:50.968750
2438,4.22,2021-12-17 16:32:50.984375
2439,4.36,2021-12-17 16:32:51.000000
2440,4.62,2021-12-17 16:32:51.015625
2441,4.92,2021-12-17 16:32:51.031250
2442,5.07,2021-12-17 16:32:51.046875
2443,4.96,2021-12-17 16:32:51.062500
2444,4.54,2021-12-17 16:32:51.078125
2445,3.88,2021-12-17 16:32:51.093750
2446,3.04,2021-12-17 16:32:51.109375
2447,2.12,2021-12-17 16:32:51.125000
2448,1.12,2021-12-17 16:32:51.140625
2449,0.04,2021-12-17 16:32:51.156250
2450,-1.1,2021-12-17 16:32:51.171875
2451,-2.21,2021-12-17 16:32:51.187500
2452,-3.16,2021-12-17 16:32:51.203125
2453,-3.83,2021-12-17 16:32:51.218750
2454,-4.16,2021-12-17 16:32:51.234375
2455,-4.16,2021-12-17 16:32:51.250000
2456,-3.98,2021-12-17 16:32:51.265625
2457,-3.71,2021-12-17 16:32:51.281250
2458,-3.48,2021-12-17 16:32:51.296875
2459,-3.3,2021-12-17 16:32:51.312500
2460,-3.17,2021-12-17 16:32:51.328125
2461,-3.09,2021-12-17 16:32:51.343750
2462,-3.13,2021-12-17 16:32:51.359375
2463,-3.39,2021-12-17 16:32:51.375000
2464,-3.96,2021-12-17 16:32:51.390625
2465,-4.91,2021-12-17 16:32:51.406250
2466,-6.13,2021-12-17 16:32:51.421875
2467,-7.42,2021-12-17 16:32:51.437500
2468,-8.46,2021-12-17 16:32:51.453125
2469,-9.03,2021-12-17 16:32:51.468750
2470,-8.96,2021-12-17 16:32:51.484375
2471,-8.36,2021-12-17 16:32:51.500000
2472,-7.38,2021-12-17 16:32:51.515625
2473,-6.25,2021-12-17 16:32:51.531250
2474,-5.19,2021-12-17 16:32:51.546875
2475,-4.32,2021-12-17 16:32:51.562500
2476,-3.65,2021-12-17 16:32:51.578125
2477,-3.12,2021-12-17 16:32:51.593750
2478,-2.74,2021-12-17 16:32:51.609375
2479,-2.42,2021-12-17 16:32:51.625000
2480,-2.18,2021-12-17 16:32:51.640625
2481,-1.95,2021-12-17 16:32:51.656250
2482,-1.68,2021-12-17 16:32:51.671875
2483,-1.32,2021-12-17 16:32:51.687500
2484,-0.84,2021-12-17 16:32:51.703125
2485,-0.26,2021-12-17 16:32:51.718750
2486,0.27,2021-12-17 16:32:51.734375
2487,0.66,2021-12-17 16:32:51.750000
2488,0.9,2021-12-17 16:32:51.765625
2489,1.03,2021-12-17 16:32:51.781250
2490,1.19,2021-12-17 16:32:51.796875
2491,1.52,2021-12-17 16:32:51.812500
2492,1.96,2021-12-17 16:32:51.828125
2493,2.43,2021-12-17 16:32:51.843750
2494,2.81,2021-12-17 16:32:51.859375
2495,2.94,2021-12-17 16:32:51.875000
2496,2.89,2021-12-17 16:32:51.890625
2497,2.77,2021-12-17 16:32:51.906250
2498,2.59,2021-12-17 16:32:51.921875
2499,2.29,2021-12-17 16:32:51.937500
2500,1.75,2021-12-17 16:32:51.953125
2501,0.86,2021-12-17 16:32:51.968750
2502,-0.27,2021-12-17 16:32:51.984375
2503,-1.46,2021-12-17 16:32:52.000000
2504,-2.42,2021-12-17 16:32:52.015625
2505,-3.01,2021-12-17 16:32:52.031250
2506,-3.22,2021-12-17 16:32:52.046875
2507,-3.23,2021-12-17 16:32:52.062500
2508,-3.14,2021-12-17 16:32:52.078125
2509,-2.98,2021-12-17 16:32:52.093750
2510,-2.66,2021-12-17 16:32:52.109375
2511,-2.11,2021-12-17 16:32:52.125000
2512,-1.36,2021-12-17 16:32:52.140625
2513,-0.62,2021-12-17 16:32:52.156250
2514,-0.17,2021-12-17 16:32:52.171875
2515,-0.21,2021-12-17 16:32:52.187500
2516,-0.83,2021-12-17 16:32:52.203125
2517,-1.82,2021-12-17 16:32:52.218750
2518,-2.9,2021-12-17 16:32:52.234375
2519,-3.81,2021-12-17 16:32:52.250000
2520,-4.41,2021-12-17 16:32:52.265625
2521,-4.68,2021-12-17 16:32:52.281250
2522,-4.78,2021-12-17 16:32:52.296875
2523,-4.8,2021-12-17 16:32:52.312500
2524,-4.82,2021-12-17 16:32:52.328125
2525,-4.9,2021-12-17 16:32:52.343750
2526,-5.0,2021-12-17 16:32:52.359375
2527,-5.18,2021-12-17 16:32:52.375000
2528,-5.52,2021-12-17 16:32:52.390625
2529,-6.16,2021-12-17 16:32:52.406250
2530,-7.06,2021-12-17 16:32:52.421875
2531,-8.06,2021-12-17 16:32:52.437500
2532,-8.84,2021-12-17 16:32:52.453125
2533,-9.04,2021-12-17 16:32:52.468750
2534,-8.49,2021-12-17 16:32:52.484375
2535,-7.21,2021-12-17 16:32:52.500000
2536,-5.49,2021-12-17 16:32:52.515625
2537,-3.75,2021-12-17 16:32:52.531250
2538,-2.37,2021-12-17 16:32:52.546875
2539,-1.58,2021-12-17 16:32:52.562500
2540,-1.38,2021-12-17 16:32:52.578125
2541,-1.61,2021-12-17 16:32:52.593750
2542,-2.0,2021-12-17 16:32:52.609375
2543,-2.32,2021-12-17 16:32:52.625000
2544,-2.42,2021-12-17 16:32:52.640625
2545,-2.27,2021-12-17 16:32:52.656250
2546,-2.0,2021-12-17 16:32:52.671875
2547,-1.7,2021-12-17 16:32:52.687500
2548,-1.52,2021-12-17 16:32:52.703125
2549,-1.48,2021-12-17 16:32:52.718750
2550,-1.46,2021-12-17 16:32:52.734375
2551,-1.35,2021-12-17 16:32:52.750000
2552,-1.04,2021-12-17 16:32:52.765625
2553,-0.53,2021-12-17 16:32:52.781250
2554,0.12,2021-12-17 16:32:52.796875
2555,0.8,2021-12-17 16:32:52.812500
2556,1.43,2021-12-17 16:32:52.828125
2557,2.02,2021-12-17 16:32:52.843750
2558,2.59,2021-12-17 16:32:52.859375
2559,3.14,2021-12-17 16:32:52.875000
2560,3.62,2021-12-17 16:32:52.890625
2561,3.83,2021-12-17 16:32:52.906250
2562,3.63,2021-12-17 16:32:52.921875
2563,3.0,2021-12-17 16:32:52.937500
2564,2.04,2021-12-17 16:32:52.953125
2565,0.97,2021-12-17 16:32:52.968750
2566,0.02,2021-12-17 16:32:52.984375
2567,-0.69,2021-12-17 16:32:53.000000
2568,-1.14,2021-12-17 16:32:53.015625
2569,-1.36,2021-12-17 16:32:53.031250
2570,-1.49,2021-12-17 16:32:53.046875
2571,-1.57,2021-12-17 16:32:53.062500
2572,-1.62,2021-12-17 16:32:53.078125
2573,-1.63,2021-12-17 16:32:53.093750
2574,-1.5,2021-12-17 16:32:53.109375
2575,-1.2,2021-12-17 16:32:53.125000
2576,-0.68,2021-12-17 16:32:53.140625
2577,0.02,2021-12-17 16:32:53.156250
2578,0.82,2021-12-17 16:32:53.171875
2579,1.53,2021-12-17 16:32:53.187500
2580,1.96,2021-12-17 16:32:53.203125
2581,2.01,2021-12-17 16:32:53.218750
2582,1.64,2021-12-17 16:32:53.234375
2583,0.95,2021-12-17 16:32:53.250000
2584,0.03,2021-12-17 16:32:53.265625
2585,-1.01,2021-12-17 16:32:53.281250
2586,-2.1,2021-12-17 16:32:53.296875
2587,-3.15,2021-12-17 16:32:53.312500
2588,-4.13,2021-12-17 16:32:53.328125
2589,-4.95,2021-12-17 16:32:53.343750
2590,-5.48,2021-12-17 16:32:53.359375
2591,-5.65,2021-12-17 16:32:53.375000
2592,-5.48,2021-12-17 16:32:53.390625
2593,-5.04,2021-12-17 16:32:53.406250
2594,-4.48,2021-12-17 16:32:53.421875
2595,-3.87,2021-12-17 16:32:53.437500
2596,-3.21,2021-12-17 16:32:53.453125
2597,-2.46,2021-12-17 16:32:53.468750
2598,-1.52,2021-12-17 16:32:53.484375
2599,-0.37,2021-12-17 16:32:53.500000
2600,0.9,2021-12-17 16:32:53.515625
2601,2.14,2021-12-17 16:32:53.531250
2602,3.12,2021-12-17 16:32:53.546875
2603,3.6,2021-12-17 16:32:53.562500
2604,3.42,2021-12-17 16:32:53.578125
2605,2.57,2021-12-17 16:32:53.593750
2606,1.18,2021-12-17 16:32:53.609375
2607,-0.46,2021-12-17 16:32:53.625000
2608,-2.02,2021-12-17 16:32:53.640625
2609,-3.28,2021-12-17 16:32:53.656250
2610,-4.06,2021-12-17 16:32:53.671875
2611,-4.4,2021-12-17 16:32:53.687500
2612,-4.45,2021-12-17 16:32:53.703125
2613,-4.33,2021-12-17 16:32:53.718750
2614,-4.13,2021-12-17 16:32:53.734375
2615,-3.9,2021-12-17 16:32:53.750000
2616,-3.64,2021-12-17 16:32:53.765625
2617,-3.4,2021-12-17 16:32:53.781250
2618,-3.21,2021-12-17 16:32:53.796875
2619,-3.13,2021-12-17 16:32:53.812500
2620,-3.15,2021-12-17 16:32:53.828125
2621,-3.21,2021-12-17 16:32:53.843750
2622,-3.25,2021-12-17 16:32:53.859375
2623,-3.09,2021-12-17 16:32:53.875000
2624,-2.7,2021-12-17 16:32:53.890625
2625,-2.07,2021-12-17 16:32:53.906250
2626,-1.33,2021-12-17 16:32:53.921875
2627,-0.62,2021-12-17 16:32:53.937500
2628,-0.18,2021-12-17 16:32:53.953125
2629,-0.11,2021-12-17 16:32:53.968750
2630,-0.4,2021-12-17 16:32:53.984375
2631,-0.9,2021-12-17 16:32:54.000000
2632,-1.3,2021-12-17 16:32:54.015625
2633,-1.47,2021-12-17 16:32:54.031250
2634,-1.39,2021-12-17 16:32:54.046875
2635,-1.21,2021-12-17 16:32:54.062500
2636,-1.22,2021-12-17 16:32:54.078125
2637,-1.6,2021-12-17 16:32:54.093750
2638,-2.41,2021-12-17 16:32:54.109375
2639,-3.53,2021-12-17 16:32:54.125000
2640,-4.75,2021-12-17 16:32:54.140625
2641,-5.86,2021-12-17 16:32:54.156250
2642,-6.82,2021-12-17 16:32:54.171875
2643,-7.71,2021-12-17 16:32:54.187500
2644,-8.56,2021-12-17 16:32:54.203125
2645,-9.36,2021-12-17 16:32:54.218750
2646,-9.91,2021-12-17 16:32:54.234375
2647,-10.01,2021-12-17 16:32:54.250000
2648,-9.49,2021-12-17 16:32:54.265625
2649,-8.37,2021-12-17 16:32:54.281250
2650,-6.79,2021-12-17 16:32:54.296875
2651,-4.99,2021-12-17 16:32:54.312500
2652,-3.18,2021-12-17 16:32:54.328125
2653,-1.46,2021-12-17 16:32:54.343750
2654,0.13,2021-12-17 16:32:54.359375
2655,1.64,2021-12-17 16:32:54.375000
2656,3.1,2021-12-17 16:32:54.390625
2657,4.48,2021-12-17 16:32:54.406250
2658,5.66,2021-12-17 16:32:54.421875
2659,6.61,2021-12-17 16:32:54.437500
2660,7.26,2021-12-17 16:32:54.453125
2661,7.61,2021-12-17 16:32:54.468750
2662,7.74,2021-12-17 16:32:54.484375
2663,7.64,2021-12-17 16:32:54.500000
2664,7.44,2021-12-17 16:32:54.515625
2665,7.17,2021-12-17 16:32:54.531250
2666,6.85,2021-12-17 16:32:54.546875
2667,6.44,2021-12-17 16:32:54.562500
2668,5.93,2021-12-17 16:32:54.578125
2669,5.35,2021-12-17 16:32:54.593750
2670,4.86,2021-12-17 16:32:54.609375
2671,4.6,2021-12-17 16:32:54.625000
2672,4.61,2021-12-17 16:32:54.640625
2673,4.89,2021-12-17 16:32:54.656250
2674,5.22,2021-12-17 16:32:54.671875
2675,5.36,2021-12-17 16:32:54.687500
2676,5.12,2021-12-17 16:32:54.703125
2677,4.52,2021-12-17 16:32:54.718750
2678,3.69,2021-12-17 16:32:54.734375
2679,2.9,2021-12-17 16:32:54.750000
2680,2.35,2021-12-17 16:32:54.765625
2681,2.09,2021-12-17 16:32:54.781250
2682,2.01,2021-12-17 16:32:54.796875
2683,1.96,2021-12-17 16:32:54.812500
2684,1.79,2021-12-17 16:32:54.828125
2685,1.44,2021-12-17 16:32:54.843750
2686,0.98,2021-12-17 16:32:54.859375
2687,0.45,2021-12-17 16:32:54.875000
2688,-0.12,2021-12-17 16:32:54.890625
2689,-0.79,2021-12-17 16:32:54.906250
2690,-1.6,2021-12-17 16:32:54.921875
2691,-2.67,2021-12-17 16:32:54.937500
2692,-3.94,2021-12-17 16:32:54.953125
2693,-5.32,2021-12-17 16:32:54.968750
2694,-6.6,2021-12-17 16:32:54.984375
2695,-7.61,2021-12-17 16:32:55.000000
2696,-8.23,2021-12-17 16:32:55.015625
2697,-8.46,2021-12-17 16:32:55.031250
2698,-8.33,2021-12-17 16:32:55.046875
2699,-7.88,2021-12-17 16:32:55.062500
2700,-7.19,2021-12-17 16:32:55.078125
2701,-6.29,2021-12-17 16:32:55.093750
2702,-5.22,2021-12-17 16:32:55.109375
2703,-4.06,2021-12-17 16:32:55.125000
2704,-3.0,2021-12-17 16:32:55.140625
2705,-2.29,2021-12-17 16:32:55.156250
2706,-2.16,2021-12-17 16:32:55.171875
2707,-2.74,2021-12-17 16:32:55.187500
2708,-4.04,2021-12-17 16:32:55.203125
2709,-5.9,2021-12-17 16:32:55.218750
2710,-8.06,2021-12-17 16:32:55.234375
2711,-10.13,2021-12-17 16:32:55.250000
2712,-11.74,2021-12-17 16:32:55.265625
2713,-12.53,2021-12-17 16:32:55.281250
2714,-12.32,2021-12-17 16:32:55.296875
2715,-11.11,2021-12-17 16:32:55.312500
2716,-9.13,2021-12-17 16:32:55.328125
2717,-6.84,2021-12-17 16:32:55.343750
2718,-4.65,2021-12-17 16:32:55.359375
2719,-2.92,2021-12-17 16:32:55.375000
2720,-1.77,2021-12-17 16:32:55.390625
2721,-1.1,2021-12-17 16:32:55.406250
2722,-0.65,2021-12-17 16:32:55.421875
2723,-0.23,2021-12-17 16:32:55.437500
2724,0.26,2021-12-17 16:32:55.453125
2725,0.78,2021-12-17 16:32:55.468750
2726,1.16,2021-12-17 16:32:55.484375
2727,1.35,2021-12-17 16:32:55.500000
2728,1.41,2021-12-17 16:32:55.515625
2729,1.41,2021-12-17 16:32:55.531250
2730,1.5,2021-12-17 16:32:55.546875
2731,1.74,2021-12-17 16:32:55.562500
2732,2.17,2021-12-17 16:32:55.578125
2733,2.66,2021-12-17 16:32:55.593750
2734,3.19,2021-12-17 16:32:55.609375
2735,3.66,2021-12-17 16:32:55.625000
2736,4.08,2021-12-17 16:32:55.640625
2737,4.49,2021-12-17 16:32:55.656250
2738,4.91,2021-12-17 16:32:55.671875
2739,5.38,2021-12-17 16:32:55.687500
2740,5.9,2021-12-17 16:32:55.703125
2741,6.46,2021-12-17 16:32:55.718750
2742,6.97,2021-12-17 16:32:55.734375
2743,7.39,2021-12-17 16:32:55.750000
2744,7.65,2021-12-17 16:32:55.765625
2745,7.75,2021-12-17 16:32:55.781250
2746,7.7,2021-12-17 16:32:55.796875
2747,7.54,2021-12-17 16:32:55.812500
2748,7.3,2021-12-17 16:32:55.828125
2749,6.98,2021-12-17 16:32:55.843750
2750,6.63,2021-12-17 16:32:55.859375
2751,6.27,2021-12-17 16:32:55.875000
2752,5.97,2021-12-17 16:32:55.890625
2753,5.72,2021-12-17 16:32:55.906250
2754,5.47,2021-12-17 16:32:55.921875
2755,5.07,2021-12-17 16:32:55.937500
2756,4.43,2021-12-17 16:32:55.953125
2757,3.51,2021-12-17 16:32:55.968750
2758,2.35,2021-12-17 16:32:55.984375
2759,1.08,2021-12-17 16:32:56.000000
2760,-0.16,2021-12-17 16:32:56.015625
2761,-1.3,2021-12-17 16:32:56.031250
2762,-2.37,2021-12-17 16:32:56.046875
2763,-3.44,2021-12-17 16:32:56.062500
2764,-4.5,2021-12-17 16:32:56.078125
2765,-5.51,2021-12-17 16:32:56.093750
2766,-6.38,2021-12-17 16:32:56.109375
2767,-7.06,2021-12-17 16:32:56.125000
2768,-7.59,2021-12-17 16:32:56.140625
2769,-8.05,2021-12-17 16:32:56.156250
2770,-8.44,2021-12-17 16:32:56.171875
2771,-8.78,2021-12-17 16:32:56.187500
2772,-8.95,2021-12-17 16:32:56.203125
2773,-8.8,2021-12-17 16:32:56.218750
2774,-8.31,2021-12-17 16:32:56.234375
2775,-7.53,2021-12-17 16:32:56.250000
2776,-6.63,2021-12-17 16:32:56.265625
2777,-5.73,2021-12-17 16:32:56.281250
2778,-4.91,2021-12-17 16:32:56.296875
2779,-4.08,2021-12-17 16:32:56.312500
2780,-3.14,2021-12-17 16:32:56.328125
2781,-1.97,2021-12-17 16:32:56.343750
2782,-0.56,2021-12-17 16:32:56.359375
2783,0.96,2021-12-17 16:32:56.375000
2784,2.42,2021-12-17 16:32:56.390625
2785,3.63,2021-12-17 16:32:56.406250
2786,4.54,2021-12-17 16:32:56.421875
2787,5.14,2021-12-17 16:32:56.437500
2788,5.58,2021-12-17 16:32:56.453125
2789,5.99,2021-12-17 16:32:56.468750
2790,6.43,2021-12-17 16:32:56.484375
2791,6.92,2021-12-17 16:32:56.500000
2792,7.35,2021-12-17 16:32:56.515625
2793,7.58,2021-12-17 16:32:56.531250
2794,7.45,2021-12-17 16:32:56.546875
2795,6.9,2021-12-17 16:32:56.562500
2796,5.96,2021-12-17 16:32:56.578125
2797,4.75,2021-12-17 16:32:56.593750
2798,3.5,2021-12-17 16:32:56.609375
2799,2.38,2021-12-17 16:32:56.625000
2800,1.53,2021-12-17 16:32:56.640625
2801,0.95,2021-12-17 16:32:56.656250
2802,0.61,2021-12-17 16:32:56.671875
2803,0.47,2021-12-17 16:32:56.687500
2804,0.49,2021-12-17 16:32:56.703125
2805,0.65,2021-12-17 16:32:56.718750
2806,0.93,2021-12-17 16:32:56.734375
2807,1.37,2021-12-17 16:32:56.750000
2808,1.87,2021-12-17 16:32:56.765625
2809,2.32,2021-12-17 16:32:56.781250
2810,2.61,2021-12-17 16:32:56.796875
2811,2.66,2021-12-17 16:32:56.812500
2812,2.53,2021-12-17 16:32:56.828125
2813,2.29,2021-12-17 16:32:56.843750
2814,2.1,2021-12-17 16:32:56.859375
2815,2.08,2021-12-17 16:32:56.875000
2816,2.31,2021-12-17 16:32:56.890625
2817,2.72,2021-12-17 16:32:56.906250
2818,3.22,2021-12-17 16:32:56.921875
2819,3.61,2021-12-17 16:32:56.937500
2820,3.73,2021-12-17 16:32:56.953125
2821,3.5,2021-12-17 16:32:56.968750
2822,2.85,2021-12-17 16:32:56.984375
2823,1.82,2021-12-17 16:32:57.000000
2824,0.53,2021-12-17 16:32:57.015625
2825,-0.89,2021-12-17 16:32:57.031250
2826,-2.32,2021-12-17 16:32:57.046875
2827,-3.6,2021-12-17 16:32:57.062500
2828,-4.66,2021-12-17 16:32:57.078125
2829,-5.46,2021-12-17 16:32:57.093750
2830,-5.93,2021-12-17 16:32:57.109375
2831,-6.08,2021-12-17 16:32:57.125000
2832,-5.88,2021-12-17 16:32:57.140625
2833,-5.34,2021-12-17 16:32:57.156250
2834,-4.39,2021-12-17 16:32:57.171875
2835,-3.05,2021-12-17 16:32:57.187500
2836,-1.41,2021-12-17 16:32:57.203125
2837,0.42,2021-12-17 16:32:57.218750
2838,2.19,2021-12-17 16:32:57.234375
2839,3.65,2021-12-17 16:32:57.250000
2840,4.65,2021-12-17 16:32:57.265625
2841,5.16,2021-12-17 16:32:57.281250
2842,5.27,2021-12-17 16:32:57.296875
2843,5.21,2021-12-17 16:32:57.312500
2844,5.13,2021-12-17 16:32:57.328125
2845,5.07,2021-12-17 16:32:57.343750
2846,4.97,2021-12-17 16:32:57.359375
2847,4.64,2021-12-17 16:32:57.375000
2848,3.97,2021-12-17 16:32:57.390625
2849,2.87,2021-12-17 16:32:57.406250
2850,1.42,2021-12-17 16:32:57.421875
2851,-0.26,2021-12-17 16:32:57.437500
2852,-1.97,2021-12-17 16:32:57.453125
2853,-3.59,2021-12-17 16:32:57.468750
2854,-4.99,2021-12-17 16:32:57.484375
2855,-6.09,2021-12-17 16:32:57.500000
2856,-6.85,2021-12-17 16:32:57.515625
2857,-7.25,2021-12-17 16:32:57.531250
2858,-7.33,2021-12-17 16:32:57.546875
2859,-7.16,2021-12-17 16:32:57.562500
2860,-6.75,2021-12-17 16:32:57.578125
2861,-6.07,2021-12-17 16:32:57.593750
2862,-5.1,2021-12-17 16:32:57.609375
2863,-3.79,2021-12-17 16:32:57.625000
2864,-2.16,2021-12-17 16:32:57.640625
2865,-0.39,2021-12-17 16:32:57.656250
2866,1.25,2021-12-17 16:32:57.671875
2867,2.54,2021-12-17 16:32:57.687500
2868,3.37,2021-12-17 16:32:57.703125
2869,3.78,2021-12-17 16:32:57.718750
2870,4.0,2021-12-17 16:32:57.734375
2871,4.2,2021-12-17 16:32:57.750000
2872,4.48,2021-12-17 16:32:57.765625
2873,4.88,2021-12-17 16:32:57.781250
2874,5.27,2021-12-17 16:32:57.796875
2875,5.53,2021-12-17 16:32:57.812500
2876,5.56,2021-12-17 16:32:57.828125
2877,5.4,2021-12-17 16:32:57.843750
2878,5.12,2021-12-17 16:32:57.859375
2879,4.84,2021-12-17 16:32:57.875000
2880,4.7,2021-12-17 16:32:57.890625
2881,4.75,2021-12-17 16:32:57.906250
2882,5.01,2021-12-17 16:32:57.921875
2883,5.4,2021-12-17 16:32:57.937500
2884,5.73,2021-12-17 16:32:57.953125
2885,5.83,2021-12-17 16:32:57.968750
2886,5.65,2021-12-17 16:32:57.984375
2887,5.27,2021-12-17 16:32:58.000000
2888,4.81,2021-12-17 16:32:58.015625
2889,4.5,2021-12-17 16:32:58.031250
2890,4.32,2021-12-17 16:32:58.046875
2891,4.09,2021-12-17 16:32:58.062500
2892,3.44,2021-12-17 16:32:58.078125
2893,2.03,2021-12-17 16:32:58.093750
2894,-0.24,2021-12-17 16:32:58.109375
2895,-3.2,2021-12-17 16:32:58.125000
2896,-6.46,2021-12-17 16:32:58.140625
2897,-9.48,2021-12-17 16:32:58.156250
2898,-11.83,2021-12-17 16:32:58.171875
2899,-13.29,2021-12-17 16:32:58.187500
2900,-13.8,2021-12-17 16:32:58.203125
2901,-13.5,2021-12-17 16:32:58.218750
2902,-12.54,2021-12-17 16:32:58.234375
2903,-11.07,2021-12-17 16:32:58.250000
2904,-9.29,2021-12-17 16:32:58.265625
2905,-7.37,2021-12-17 16:32:58.281250
2906,-5.53,2021-12-17 16:32:58.296875
2907,-3.96,2021-12-17 16:32:58.312500
2908,-2.84,2021-12-17 16:32:58.328125
2909,-2.11,2021-12-17 16:32:58.343750
2910,-1.59,2021-12-17 16:32:58.359375
2911,-0.99,2021-12-17 16:32:58.375000
2912,-0.04,2021-12-17 16:32:58.390625
2913,1.32,2021-12-17 16:32:58.406250
2914,2.92,2021-12-17 16:32:58.421875
2915,4.41,2021-12-17 16:32:58.437500
2916,5.46,2021-12-17 16:32:58.453125
2917,5.9,2021-12-17 16:32:58.468750
2918,5.86,2021-12-17 16:32:58.484375
2919,5.64,2021-12-17 16:32:58.500000
2920,5.45,2021-12-17 16:32:58.515625
2921,5.39,2021-12-17 16:32:58.531250
2922,5.38,2021-12-17 16:32:58.546875
2923,5.29,2021-12-17 16:32:58.562500
2924,5.17,2021-12-17 16:32:58.578125
2925,5.11,2021-12-17 16:32:58.593750
2926,5.25,2021-12-17 16:32:58.609375
2927,5.6,2021-12-17 16:32:58.625000
2928,6.02,2021-12-17 16:32:58.640625
2929,6.3,2021-12-17 16:32:58.656250
2930,6.31,2021-12-17 16:32:58.671875
2931,6.11,2021-12-17 16:32:58.687500
2932,5.86,2021-12-17 16:32:58.703125
2933,5.77,2021-12-17 16:32:58.718750
2934,5.83,2021-12-17 16:32:58.734375
2935,5.92,2021-12-17 16:32:58.750000
2936,5.84,2021-12-17 16:32:58.765625
2937,5.5,2021-12-17 16:32:58.781250
2938,4.97,2021-12-17 16:32:58.796875
2939,4.43,2021-12-17 16:32:58.812500
2940,4.03,2021-12-17 16:32:58.828125
2941,3.76,2021-12-17 16:32:58.843750
2942,3.51,2021-12-17 16:32:58.859375
2943,3.13,2021-12-17 16:32:58.875000
2944,2.53,2021-12-17 16:32:58.890625
2945,1.77,2021-12-17 16:32:58.906250
2946,0.98,2021-12-17 16:32:58.921875
2947,0.32,2021-12-17 16:32:58.937500
2948,-0.18,2021-12-17 16:32:58.953125
2949,-0.51,2021-12-17 16:32:58.968750
2950,-0.71,2021-12-17 16:32:58.984375
2951,-0.75,2021-12-17 16:32:59.000000
2952,-0.63,2021-12-17 16:32:59.015625
2953,-0.37,2021-12-17 16:32:59.031250
2954,-0.04,2021-12-17 16:32:59.046875
2955,0.21,2021-12-17 16:32:59.062500
2956,0.26,2021-12-17 16:32:59.078125
2957,0.01,2021-12-17 16:32:59.093750
2958,-0.48,2021-12-17 16:32:59.109375
2959,-1.18,2021-12-17 16:32:59.125000
2960,-1.98,2021-12-17 16:32:59.140625
2961,-2.82,2021-12-17 16:32:59.156250
2962,-3.64,2021-12-17 16:32:59.171875
2963,-4.3,2021-12-17 16:32:59.187500
2964,-4.76,2021-12-17 16:32:59.203125
2965,-4.96,2021-12-17 16:32:59.218750
2966,-4.99,2021-12-17 16:32:59.234375
2967,-4.91,2021-12-17 16:32:59.250000
2968,-4.79,2021-12-17 16:32:59.265625
2969,-4.6,2021-12-17 16:32:59.281250
2970,-4.24,2021-12-17 16:32:59.296875
2971,-3.56,2021-12-17 16:32:59.312500
2972,-2.52,2021-12-17 16:32:59.328125
2973,-1.31,2021-12-17 16:32:59.343750
2974,-0.19,2021-12-17 16:32:59.359375
2975,0.54,2021-12-17 16:32:59.375000
2976,0.68,2021-12-17 16:32:59.390625
2977,0.3,2021-12-17 16:32:59.406250
2978,-0.35,2021-12-17 16:32:59.421875
2979,-1.04,2021-12-17 16:32:59.437500
2980,-1.58,2021-12-17 16:32:59.453125
2981,-1.94,2021-12-17 16:32:59.468750
2982,-2.18,2021-12-17 16:32:59.484375
2983,-2.33,2021-12-17 16:32:59.500000
2984,-2.26,2021-12-17 16:32:59.515625
2985,-1.89,2021-12-17 16:32:59.531250
2986,-1.09,2021-12-17 16:32:59.546875
2987,0.12,2021-12-17 16:32:59.562500
2988,1.67,2021-12-17 16:32:59.578125
2989,3.41,2021-12-17 16:32:59.593750
2990,5.26,2021-12-17 16:32:59.609375
2991,7.08,2021-12-17 16:32:59.625000
2992,8.71,2021-12-17 16:32:59.640625
2993,9.94,2021-12-17 16:32:59.656250
2994,10.49,2021-12-17 16:32:59.671875
2995,10.19,2021-12-17 16:32:59.687500
2996,8.99,2021-12-17 16:32:59.703125
2997,7.11,2021-12-17 16:32:59.718750
2998,4.82,2021-12-17 16:32:59.734375
2999,2.46,2021-12-17 16:32:59.750000
3000,0.29,2021-12-17 16:32:59.765625
3001,-1.54,2021-12-17 16:32:59.781250
3002,-2.92,2021-12-17 16:32:59.796875
3003,-3.78,2021-12-17 16:32:59.812500
3004,-4.06,2021-12-17 16:32:59.828125
3005,-3.75,2021-12-17 16:32:59.843750
3006,-2.93,2021-12-17 16:32:59.859375
3007,-1.73,2021-12-17 16:32:59.875000
3008,-0.41,2021-12-17 16:32:59.890625
3009,0.78,2021-12-17 16:32:59.906250
3010,1.64,2021-12-17 16:32:59.921875
3011,2.04,2021-12-17 16:32:59.937500
3012,1.97,2021-12-17 16:32:59.953125
3013,1.48,2021-12-17 16:32:59.968750
3014,0.64,2021-12-17 16:32:59.984375
3015,-0.51,2021-12-17 16:33:00.000000
3016,-1.9,2021-12-17 16:33:00.015625
3017,-3.5,2021-12-17 16:33:00.031250
3018,-5.23,2021-12-17 16:33:00.046875
3019,-6.91,2021-12-17 16:33:00.062500
3020,-8.25,2021-12-17 16:33:00.078125
3021,-8.97,2021-12-17 16:33:00.093750
3022,-8.85,2021-12-17 16:33:00.109375
3023,-7.85,2021-12-17 16:33:00.125000
3024,-6.22,2021-12-17 16:33:00.140625
3025,-4.34,2021-12-17 16:33:00.156250
3026,-2.65,2021-12-17 16:33:00.171875
3027,-1.48,2021-12-17 16:33:00.187500
3028,-0.85,2021-12-17 16:33:00.203125
3029,-0.62,2021-12-17 16:33:00.218750
3030,-0.51,2021-12-17 16:33:00.234375
3031,-0.35,2021-12-17 16:33:00.250000
3032,-0.08,2021-12-17 16:33:00.265625
3033,0.2,2021-12-17 16:33:00.281250
3034,0.37,2021-12-17 16:33:00.296875
3035,0.38,2021-12-17 16:33:00.312500
3036,0.29,2021-12-17 16:33:00.328125
3037,0.27,2021-12-17 16:33:00.343750
3038,0.44,2021-12-17 16:33:00.359375
3039,0.84,2021-12-17 16:33:00.375000
3040,1.4,2021-12-17 16:33:00.390625
3041,2.01,2021-12-17 16:33:00.406250
3042,2.58,2021-12-17 16:33:00.421875
3043,3.11,2021-12-17 16:33:00.437500
3044,3.56,2021-12-17 16:33:00.453125
3045,3.86,2021-12-17 16:33:00.468750
3046,3.9,2021-12-17 16:33:00.484375
3047,3.59,2021-12-17 16:33:00.500000
3048,2.97,2021-12-17 16:33:00.515625
3049,2.32,2021-12-17 16:33:00.531250
3050,1.89,2021-12-17 16:33:00.546875
3051,1.94,2021-12-17 16:33:00.562500
3052,2.52,2021-12-17 16:33:00.578125
3053,3.5,2021-12-17 16:33:00.593750
3054,4.57,2021-12-17 16:33:00.609375
3055,5.45,2021-12-17 16:33:00.625000
3056,5.92,2021-12-17 16:33:00.640625
3057,5.87,2021-12-17 16:33:00.656250
3058,5.3,2021-12-17 16:33:00.671875
3059,4.22,2021-12-17 16:33:00.687500
3060,2.77,2021-12-17 16:33:00.703125
3061,1.19,2021-12-17 16:33:00.718750
3062,-0.16,2021-12-17 16:33:00.734375
3063,-1.0,2021-12-17 16:33:00.750000
3064,-1.17,2021-12-17 16:33:00.765625
3065,-0.76,2021-12-17 16:33:00.781250
3066,-0.04,2021-12-17 16:33:00.796875
3067,0.68,2021-12-17 16:33:00.812500
3068,1.09,2021-12-17 16:33:00.828125
3069,1.0,2021-12-17 16:33:00.843750
3070,0.33,2021-12-17 16:33:00.859375
3071,-0.93,2021-12-17 16:33:00.875000
3072,-2.77,2021-12-17 16:33:00.890625
3073,-5.1,2021-12-17 16:33:00.906250
3074,-7.59,2021-12-17 16:33:00.921875
3075,-9.83,2021-12-17 16:33:00.937500
3076,-11.33,2021-12-17 16:33:00.953125
3077,-11.77,2021-12-17 16:33:00.968750
3078,-11.17,2021-12-17 16:33:00.984375
3079,-9.86,2021-12-17 16:33:01.000000
3080,-8.31,2021-12-17 16:33:01.015625
3081,-6.99,2021-12-17 16:33:01.031250
3082,-6.2,2021-12-17 16:33:01.046875
3083,-6.0,2021-12-17 16:33:01.062500
3084,-6.33,2021-12-17 16:33:01.078125
3085,-6.94,2021-12-17 16:33:01.093750
3086,-7.58,2021-12-17 16:33:01.109375
3087,-7.93,2021-12-17 16:33:01.125000
3088,-7.73,2021-12-17 16:33:01.140625
3089,-6.75,2021-12-17 16:33:01.156250
3090,-4.94,2021-12-17 16:33:01.171875
3091,-2.41,2021-12-17 16:33:01.187500
3092,0.55,2021-12-17 16:33:01.203125
3093,3.49,2021-12-17 16:33:01.218750
3094,5.99,2021-12-17 16:33:01.234375
3095,7.65,2021-12-17 16:33:01.250000
3096,8.32,2021-12-17 16:33:01.265625
3097,8.03,2021-12-17 16:33:01.281250
3098,7.08,2021-12-17 16:33:01.296875
3099,5.85,2021-12-17 16:33:01.312500
3100,4.74,2021-12-17 16:33:01.328125
3101,3.99,2021-12-17 16:33:01.343750
3102,3.59,2021-12-17 16:33:01.359375
3103,3.47,2021-12-17 16:33:01.375000
3104,3.54,2021-12-17 16:33:01.390625
3105,3.82,2021-12-17 16:33:01.406250
3106,4.43,2021-12-17 16:33:01.421875
3107,5.49,2021-12-17 16:33:01.437500
3108,6.96,2021-12-17 16:33:01.453125
3109,8.64,2021-12-17 16:33:01.468750
3110,10.23,2021-12-17 16:33:01.484375
3111,11.44,2021-12-17 16:33:01.500000
3112,12.1,2021-12-17 16:33:01.515625
3113,12.17,2021-12-17 16:33:01.531250
3114,11.67,2021-12-17 16:33:01.546875
3115,10.55,2021-12-17 16:33:01.562500
3116,8.83,2021-12-17 16:33:01.578125
3117,6.54,2021-12-17 16:33:01.593750
3118,3.82,2021-12-17 16:33:01.609375
3119,0.99,2021-12-17 16:33:01.625000
3120,-1.62,2021-12-17 16:33:01.640625
3121,-3.72,2021-12-17 16:33:01.656250
3122,-5.17,2021-12-17 16:33:01.671875
3123,-6.04,2021-12-17 16:33:01.687500
3124,-6.5,2021-12-17 16:33:01.703125
3125,-6.75,2021-12-17 16:33:01.718750
3126,-7.05,2021-12-17 16:33:01.734375
3127,-7.61,2021-12-17 16:33:01.750000
3128,-8.58,2021-12-17 16:33:01.765625
3129,-9.98,2021-12-17 16:33:01.781250
3130,-11.65,2021-12-17 16:33:01.796875
3131,-13.32,2021-12-17 16:33:01.812500
3132,-14.63,2021-12-17 16:33:01.828125
3133,-15.3,2021-12-17 16:33:01.843750
3134,-15.1,2021-12-17 16:33:01.859375
3135,-14.09,2021-12-17 16:33:01.875000
3136,-12.46,2021-12-17 16:33:01.890625
3137,-10.55,2021-12-17 16:33:01.906250
3138,-8.76,2021-12-17 16:33:01.921875
3139,-7.42,2021-12-17 16:33:01.937500
3140,-6.73,2021-12-17 16:33:01.953125
3141,-6.73,2021-12-17 16:33:01.968750
3142,-7.23,2021-12-17 16:33:01.984375
